355185953	0	9.77387	17.922127	27.033952	28.792843	23.650676	17.997857	16.647224	38.982077	26.302894	39.912779	54.958908	57.058222	47.262593	38.352927	39.065981	73.782083	180	169.508798	179.874197	169.840674	200.697678	344.414263	196.069947	173.032498	0	0	0	0	0	9.252058	20.093965	24.87157	35.48069	10.982002	15.77046	27.53414	47.014559	24.086673	44.39569	52.77734	72.862947	26.173601	36.041155	58.737334	92.13593	180	180.657719	153.726794	171.558218	202.637349	163.709984	198.156558	156.583495
355186453	0.5	64.759046	111.629083	166.862234	176.568722	146.26795	110.833955	102.31431	231.408153	116.722402	197.135811	288.477991	299.429265	243.423946	185.850197	174.911992	383.032767	180	190.174405	195.145457	193.628884	186.082699	195.35899	199.340194	203.569814	0	0	0	0	0	58.33184	122.167502	150.471151	214.403874	67.29942	95.762524	168.1094	263.23658	115.771627	236.025814	285.332511	404.59836	126.717335	177.502837	310.502931	481.092422	180	185.61404	193.568481	194.216674	184.456259	191.119603	196.572125	200.442289
355186953	1	65.77873	113.022715	168.476243	178.456112	147.426212	111.335994	102.953294	231.941014	116.359488	197.527462	289.031106	300.292386	242.956706	184.826402	173.52338	382.455314	180	190.191946	195.152659	193.575906	185.943706	195.275813	199.517974	203.500174	0	0	0	0	0	59.495924	124.236189	153.38162	220.093865	67.696262	96.452313	169.56174	266.562151	117.437497	240.265207	290.33326	414.267876	127.27462	178.624988	313.246825	486.221065	180	185.594831	193.69291	194.185511	184.636578	191.106389	196.556931	200.328603
355187453	1.5	65.512593	113.359079	169.304551	178.342621	147.28992	111.544032	103.200632	233.814804	115.719938	197.226837	289.442936	300.51816	242.762825	184.781769	173.633763	384.905345	180	190.331131	195.253702	193.640963	186.203854	195.301444	199.655562	203.603944	0	0	0	0	0	59.486444	124.599447	153.301938	221.049098	67.743376	96.629778	170.558317	267.99686	117.225629	240.502035	290.641658	416.161825	127.298777	178.628695	314.848504	488.716826	180	185.450238	193.686974	194.299538	184.684219	191.117131	196.690835	200.437473
355187953	2	65.259759	113.390642	170.569591	182.992983	146.956861	111.471185	104.731165	238.700693	114.835069	196.85939	291.906225	307.292598	241.744942	184.581889	175.691391	392.419407	180	190.299212	195.154652	193.376014	186.085576	195.149298	199.641157	203.406173	0	0	0	0	0	58.213546	121.339604	148.824936	212.774426	67.146185	95.434218	167.838349	262.80686	114.717167	234.338494	282.130147	401.576012	125.971575	176.365378	309.949979	479.652655	180	185.622469	193.497281	194.024595	184.439975	191.004861	196.396593	200.365888
355188453	2.5	65.7585	114.472968	172.722132	185.345897	147.707202	112.586359	105.879216	241.235575	115.425869	198.831092	295.250327	310.273353	242.439609	185.59129	177.259067	396.29088	180	189.952024	194.785738	193.187164	185.798854	194.920231	199.10793	203.059458	0	0	0	0	0	59.105731	122.910713	151.340952	219.110286	67.471361	96.084401	170.394462	269.159699	116.142666	237.285979	286.590178	412.51901	126.604017	177.559536	314.211439	490.345529	180	185.597677	193.538798	194.246619	184.64592	191.158211	196.444774	200.337195
355188953	3	65.982779	115.468687	175.23553	188.012792	148.172153	112.939445	107.491314	245.895075	115.702874	200.026654	298.723093	315.128331	243.167357	186.517891	179.588919	403.275306	180	190.208262	194.863253	193.266898	186.016533	195.266581	199.294873	203.312008	0	0	0	0	0	58.458643	122.31792	151.398195	220.144273	67.133818	96.238504	171.472038	271.036942	115.172322	236.406965	286.561036	414.163641	126.178109	177.484486	315.874367	494.267238	180	185.513843	193.465186	194.003873	184.520586	191.093388	196.483307	200.246816
355189453	3.5	66.131673	116.044048	175.630393	189.076706	148.071956	113.367419	107.288428	246.333456	115.559098	200.802095	299.676241	316.384805	243.138924	186.818727	179.653267	404.031927	180	190.035489	194.874406	193.113842	185.870457	195.128435	199.266501	203.208046	0	0	0	0	0	58.117675	122.408508	151.614096	219.368898	67.108828	96.132304	171.323521	270.796037	114.937837	236.495405	286.899401	413.035219	125.900736	177.479228	315.975972	494.26384	180	185.687181	193.50565	194.083062	184.646994	191.149625	196.536894	200.340423
355189953	4	67.102213	117.205467	178.038662	190.732764	149.510964	114.229755	108.203147	248.398226	117.08711	202.885403	302.988033	319.781323	245.314327	187.836002	180.722328	407.351443	180	190.112264	194.848911	193.196992	186.052569	195.076383	199.234177	203.270026	0	0	0	0	0	59.288666	124.283922	153.820303	223.546447	67.54452	96.671489	172.98242	274.309289	116.727163	240.271324	291.199905	421.227789	126.671842	178.514762	318.781136	499.55205	180	185.596516	193.397592	194.017771	184.470389	191.049771	196.401665	200.189883
355190453	4.5	66.757759	116.016935	175.495039	187.456585	148.793522	113.193396	106.957224	243.873056	116.555022	200.748504	299.05606	313.941988	243.961067	186.440727	178.180644	400.043522	180	190.057635	195.005654	193.290479	186.117339	195.159618	199.345471	203.281952	0	0	0	0	0	58.793442	122.445005	148.592803	212.68903	67.718604	95.715578	167.184966	259.30709	116.105984	236.072777	281.790745	400.373428	127.01847	176.827108	308.094579	473.105278	180	185.724472	193.666655	194.370491	184.693671	191.160479	196.737706	200.682168
355190953	5	64.666336	110.539878	164.250209	175.106023	145.922848	109.003469	100.396405	228.362261	113.059548	191.145034	280.49085	293.614297	239.403695	179.785035	168.144898	374.821607	180	190.263056	195.503573	193.606691	186.231005	195.458159	199.646413	203.616825	0	0	0	0	0	58.61233	118.488475	139.625954	198.22719	67.672582	93.831789	158.761628	243.088383	115.618144	228.976247	264.878637	373.653796	126.845497	173.210259	293.23712	443.67833	180	185.647738	193.956093	194.758367	184.776733	191.163985	196.915401	200.884137
355191453	5.5	67.169245	116.491134	175.462065	187.633813	149.185355	113.328159	106.092964	242.165982	117.128203	201.356096	298.599857	314.385966	244.371732	186.274242	177.148692	397.628186	180	190.221991	195.174014	193.459568	185.943888	195.132381	199.454795	203.372751	0	0	0	0	0	60.510755	126.436009	154.574078	224.414286	68.265804	97.490457	173.194942	271.412218	119.036276	243.925334	292.590601	422.48777	127.995294	180.105179	319.185334	495.367271	180	185.330139	193.190256	194.049527	184.262301	190.784183	196.418342	200.140538
355191953	6	66.638888	115.678478	173.112925	185.40958	148.79279	112.578557	104.793286	239.767149	116.314246	199.898331	295.152238	310.61317	243.733785	185.247077	175.057158	393.109146	180	190.552948	195.477936	194.019387	186.41941	195.493836	199.764734	203.69806	0	0	0	0	0	60.25363	125.974683	153.638461	222.372347	68.078487	97.137384	172.175339	269.469528	118.437498	242.623846	290.547515	418.628486	127.60248	179.420243	317.09634	491.533169	180	185.577614	193.665206	194.306086	184.666504	191.068182	196.63999	200.553284
355192453	6.5	64.62666	111.842831	167.202141	177.812972	146.167973	110.449589	102.144795	232.227316	113.018592	193.462398	284.686365	297.989629	239.778287	181.590835	170.739211	380.998657	180	190.355391	195.351742	193.719722	186.295738	195.53581	199.71828	203.730946	0	0	0	0	0	58.987841	121.340541	150.397695	216.718582	67.428478	95.461122	169.413528	265.687839	115.488621	234.656428	284.332842	407.113834	126.145351	176.352692	311.697853	484.565119	180	185.918586	193.785247	194.441102	184.753484	191.250884	196.832535	200.586992
355192953	7	63.402476	107.593157	158.60842	165.244125	144.050836	107.33693	97.668898	216.817168	110.672203	186.354591	270.83948	277.596964	236.388142	176.580847	163.496376	356.182997	180	190.587283	195.570616	194.121565	186.158225	195.420801	199.868224	204.004717	0	0	0	0	0	59.219844	122.140429	151.359131	213.928803	67.90559	95.632035	166.500635	261.642582	116.314424	235.061666	285.900408	402.245864	127.004189	176.264957	307.253342	477.563808	180	185.840279	193.838318	194.458942	184.621186	191.426163	196.730345	200.695307
355193453	7.5	61.407838	103.18574	150.7578	154.991535	141.244487	103.297451	93.52954	203.923859	107.198584	178.966101	257.042952	260.725236	231.516749	170.210209	156.437873	335.501091	180	190.452318	195.405862	194.185914	186.068427	195.08451	199.732501	204.046488	0	0	0	0	0	58.643303	120.221088	149.276879	210.76236	67.306023	94.919536	165.048649	259.816851	115.299136	232.10682	282.181681	397.144087	126.097166	175.166449	304.360897	473.516697	180	185.716319	193.621949	194.484449	184.832109	191.266498	196.695296	200.662501
355193953	8	60.779681	102.795449	149.856535	155.672539	140.754721	102.842768	93.772164	206.205131	106.264975	177.904549	255.929248	261.239315	230.624926	169.718884	156.79263	339.043035	180	190.331526	195.456239	193.899816	186.148044	195.345495	199.778139	204.019274	0	0	0	0	0	57.953021	118.448582	145.763896	204.684527	67.076181	93.809717	162.364478	252.348221	114.047187	228.843753	276.155442	385.525533	125.514475	173.492132	299.702704	460.736385	180	185.478263	193.601779	194.406331	184.647585	190.985336	196.604302	200.499088
355194453	8.5	63.834276	111.152634	167.475646	180.194662	145.326886	109.983335	103.41117	237.686077	111.684126	192.103349	285.117661	301.654112	238.151177	180.898506	172.686898	389.075514	180	190.520683	195.273853	193.546328	186.343481	195.581096	199.737505	203.688257	0	0	0	0	0	58.100809	120.767423	150.700708	216.513384	66.789213	95.031606	169.917632	268.056672	114.322129	233.168635	285.203591	407.298342	124.981392	175.56485	313.076298	488.691406	180	185.554736	193.364226	194.038593	184.690466	191.180807	196.543885	200.303656
355194953	9	67.540573	118.544528	180.178118	195.443368	149.732147	115.018463	109.532449	253.496202	117.510273	204.593214	306.323415	326.56425	245.208155	188.83936	182.492632	415.683459	180	190.000682	194.725567	193.075268	185.931096	195.227229	199.119347	203.07114	0	0	0	0	0	59.683833	126.052404	156.804673	229.53196	67.617655	97.311802	176.704131	280.931672	117.149922	243.147707	296.782439	431.666083	126.43825	180.030021	325.960065	511.9283	180	185.607645	193.22234	193.82488	184.553216	191.124869	196.325328	200.118686
355195453	9.5	66.130166	114.408756	173.205474	186.660689	147.933171	112.290288	105.909659	243.784127	115.293856	197.9008	295.024848	312.785428	242.286899	184.898277	177.09526	399.760089	180	190.40139	195.187791	193.482955	186.334694	195.426234	199.641119	203.465031	0	0	0	0	0	59.376209	125.142316	155.472083	227.70107	67.189771	97.657964	176.342074	280.045585	116.641373	241.962609	293.678778	428.039156	126.258687	180.044337	324.654422	509.776061	180	185.56409	193.303581	193.850011	184.468531	191.080001	196.350296	200.290269
355195953	10	66.506421	116.363044	175.939628	189.205064	148.602762	113.656635	108.025311	248.820465	115.937683	200.667844	299.654929	317.073625	243.631202	187.266188	180.282101	407.800108	180	190.041498	195.112499	193.2166	186.248007	195.213542	199.416651	203.300247	0	0	0	0	0	58.661077	123.793551	153.79677	225.907791	67.008618	97.034465	176.62416	281.286146	115.45586	239.166423	290.691132	425.028715	125.794371	179.660041	324.909319	512.186225	180	185.312482	193.075656	193.656489	184.486324	190.819935	196.286541	200.017258
355196453	10.5	66.302178	115.413017	174.51984	186.308228	148.657663	113.634406	107.319004	245.202206	115.448047	199.466088	297.162922	311.640206	243.80011	186.684167	179.00876	401.656634	180	190.312843	195.151826	193.352384	186.166462	195.219825	199.347663	203.387956	0	0	0	0	0	59.046066	124.516167	152.77384	222.803594	67.473959	97.71023	175.642623	276.88212	116.360271	240.273286	288.859382	418.936663	126.604857	180.21153	323.498404	504.304678	180	185.650429	193.361533	193.966853	184.780249	191.294688	196.576076	200.337753
355196953	11	66.743141	117.330955	179.27155	193.682139	149.614322	115.100338	110.246641	253.914683	116.257407	202.75807	305.375521	324.056258	245.109982	188.77282	183.40974	416.112802	180	190.466542	195.02091	193.263137	186.2116	195.410506	199.33564	203.301133	0	0	0	0	0	58.828596	125.02614	154.258307	226.109588	67.182557	97.663964	177.13812	280.188299	115.979696	241.017454	291.371957	424.63177	126.1043	180.193767	326.255834	510.726868	180	185.374885	193.220549	193.773198	184.568384	190.937087	196.320079	200.088358
355197453	11.5	64.700782	114.071137	175.4412	190.57999	147.508592	112.957911	108.206418	250.641124	113.142067	197.421709	298.456136	318.155355	241.998204	185.963329	180.614067	410.393506	180	189.956955	194.629854	192.862085	185.831096	195.1381	199.116261	203.034013	0	0	0	0	0	56.804167	120.252795	148.111534	216.700181	65.958263	95.567087	173.469314	273.934114	112.225567	232.057783	280.238307	407.892799	123.896102	176.760165	319.388825	499.276222	180	185.373732	193.21944	193.841922	184.803769	191.175363	196.417306	200.179119
355197953	12	65.243727	115.466049	177.964909	193.810805	148.134299	113.990138	109.720478	254.404448	113.626472	199.285196	302.537651	323.154147	242.697198	187.541847	182.705408	416.265787	180	190.032428	194.728444	192.883684	186.061066	195.035322	199.316179	202.892866	0	0	0	0	0	56.634751	120.443021	148.645459	218.445286	66.117637	95.666503	174.452978	275.87328	111.934315	232.554259	281.278685	411.000345	123.852172	176.667169	321.319934	502.926039	180	185.497738	193.044395	193.665771	184.630723	190.854179	196.314725	200.069322
355198453	12.5	65.585938	115.328823	175.369304	189.740411	148.414975	114.074674	108.392264	248.428855	114.066621	198.814365	298.733168	316.899251	242.961227	187.023502	180.205572	406.924425	180	189.985195	194.798022	193.058932	186.004758	195.119314	199.287314	203.166743	0	0	0	0	0	57.369767	121.606756	149.203085	217.895103	66.392394	96.271686	174.289892	271.864411	113.081146	234.622063	282.036252	409.587388	124.679601	177.73804	321.047977	496.221767	180	185.547838	193.258441	193.964144	184.78574	191.244215	196.563649	200.272141
355198953	13	64.922882	114.188209	172.430408	184.347315	147.689794	112.792661	106.48894	243.125612	113.17934	197.071432	293.445105	307.937621	242.045042	185.661383	177.348207	397.715009	180	190.103042	194.837296	193.125179	185.930525	195.168402	199.227936	203.104526	0	0	0	0	0	58.321059	123.779942	150.762925	219.056018	67.18817	97.181209	174.946496	271.075808	114.808986	238.516627	284.779586	412.176733	125.82085	179.203264	321.92322	493.858136	180	185.5531	193.339376	193.905379	184.728038	190.995502	196.436163	200.157302
355199453	13.5	66.790484	117.929408	178.861656	192.323435	149.793311	115.303375	109.148709	251.095251	115.925298	203.023801	303.72252	321.246273	245.124505	189.050059	181.946917	411.016819	180	190.140652	194.910072	193.15111	186.154701	195.282616	199.32137	203.26988	0	0	0	0	0	59.343864	126.068757	154.961062	227.794156	67.570034	98.09	178.70381	280.861694	116.478192	242.850207	292.507956	428.062136	126.402342	181.029646	329.062228	511.563734	180	185.508952	193.269549	193.82924	184.843527	191.159257	196.318163	200.196093
355199953	14	67.648823	119.445524	180.964365	194.301069	150.996634	116.143008	110.261464	251.853931	117.518669	205.685449	307.302081	323.912267	246.783049	190.457448	183.107455	412.627287	180	190.435817	195.053705	193.370101	186.365367	195.356593	199.458083	203.482358	0	0	0	0	0	60.545738	129.111566	159.100606	235.149618	68.060217	99.329287	182.192202	287.145555	118.847205	248.524189	300.347668	441.901848	127.566627	183.169355	334.266248	522.444402	180	185.597729	193.338257	193.827086	184.672782	191.055371	196.234055	200.04556
355200453	14.5	68.150213	119.206647	180.083181	191.571289	150.711315	115.883474	109.286834	248.815942	117.723041	205.54986	305.657159	320.142049	247.016651	190.203259	181.941487	408.036645	180	190.299437	194.919365	193.162994	185.99298	195.160179	199.253207	203.269807	0	0	0	0	0	60.491156	129.236769	159.418327	236.990476	68.189818	99.415273	182.157814	288.094	118.82323	248.528345	300.820001	444.381206	127.481656	183.170177	334.89416	524.665949	180	185.386312	193.000401	193.536222	184.667608	190.951323	196.14092	199.965178
355200953	15	67.475542	118.583294	178.103276	189.732896	150.432864	115.966152	109.049381	247.839885	117.008067	204.314358	302.882268	316.498402	246.299391	189.953858	181.19597	405.731084	180	190.153874	195.002428	193.111005	186.196052	195.247405	199.385555	203.187246	0	0	0	0	0	60.139497	127.910372	157.457284	234.032256	67.943355	99.042014	181.025715	285.83072	117.994487	246.3756	297.824656	439.978256	127.202914	182.307423	332.947896	520.551921	180	185.427339	193.214197	193.648836	184.500567	190.948791	196.18702	199.930488
355201453	15.5	65.361357	114.622455	171.968511	181.541444	148.512748	113.453689	105.664251	239.309412	113.958694	197.874936	291.888132	303.368471	243.171277	186.255622	175.967287	391.65794	180	190.141463	194.92831	193.091004	186.040392	195.075523	199.359036	203.273284	0	0	0	0	0	58.881576	125.08534	153.447077	225.005015	67.188645	97.793082	178.210044	278.388064	115.543096	240.846038	289.575231	422.971512	126.097609	180.487293	327.328422	507.005398	180	185.458003	193.113688	193.740484	184.713572	191.088577	196.349322	200.068974
355201953	16	64.292651	111.053071	161.644798	166.472695	146.488739	110.453685	100.307183	220.652639	112.132717	191.523328	275.433318	278.967503	239.655535	181.215991	167.71571	361.889222	180	190.470691	195.443939	193.772829	186.508307	195.31668	199.743282	203.910676	0	0	0	0	0	59.666729	125.942386	151.80252	218.583603	67.856403	98.109085	175.949576	268.963595	117.078362	242.143269	287.213696	411.363951	127.284891	180.825421	323.314817	489.773688	180	185.316824	193.12273	193.795071	184.605082	190.972901	196.190243	200.105597
355202453	16.5	63.890028	110.65003	162.021258	166.528622	145.61831	109.797043	100.644529	222.025995	111.151011	191.104039	275.967171	278.780433	238.363853	180.851215	168.139878	363.446709	180	190.212435	195.216727	193.472913	186.387747	195.365253	199.55241	203.635718	0	0	0	0	0	59.473493	125.735101	151.89715	216.618091	67.980368	97.944311	174.906579	266.404949	116.993599	242.269055	286.95309	407.645587	127.440251	180.984084	322.26075	485.518191	180	185.240349	193.077125	193.801772	184.695429	190.872856	196.207409	200.117392
355202953	17	62.632106	108.578178	158.992979	162.897381	144.131572	108.844202	99.761397	218.099933	109.239297	187.671831	270.852648	273.081952	236.15607	178.644608	166.109555	357.781733	180	190.540922	195.293947	193.724386	186.417536	195.558418	199.841412	203.880782	0	0	0	0	0	58.390562	123.413092	149.271408	213.868259	67.172536	96.885543	174.13377	265.56869	114.88296	237.659726	281.933768	402.312371	125.956769	178.863381	320.03651	483.94006	180	185.482975	193.301274	193.98786	184.80485	191.145708	196.407896	200.225804
355203453	17.5	61.16334	104.952928	151.190941	153.165782	142.401323	106.147793	95.450009	207.034686	106.675412	181.622892	257.777367	257.156666	232.861083	174.44537	159.431367	339.914586	180	190.426929	195.351167	193.805126	186.403165	195.483823	199.443786	203.7672	0	0	0	0	0	57.762404	121.298108	144.48044	203.280383	67.088866	96.438829	169.265808	253.031889	113.751517	233.760058	273.358367	382.638773	125.774888	177.431934	311.773847	461.194989	180	185.248705	193.097082	193.824507	184.648577	190.956881	196.378452	200.268111
355203953	18	63.985779	110.465244	161.282809	164.943227	145.575229	110.366812	100.333117	219.56434	111.072826	190.486585	273.463645	276.479694	238.160012	180.732207	167.060787	360.374699	180	190.393528	195.18786	193.510042	186.463104	195.343642	199.711609	203.659257	0	0	0	0	0	60.343604	126.95452	152.001528	216.82413	68.216951	98.217777	174.939861	265.030802	118.046805	243.997725	287.131853	407.494793	127.584651	180.986231	321.917122	483.337723	180	185.728893	193.354853	194.083168	184.903951	191.355183	196.544526	200.328366
355204453	18.5	66.798112	115.631834	169.428938	172.643864	149.065665	113.548262	103.88521	227.276336	115.779	199.342953	287.803057	289.290357	243.826375	185.989099	172.960993	373.265614	180	190.031104	195.003219	193.415097	186.310423	195.115461	199.482398	203.588262	0	0	0	0	0	62.411767	132.225546	161.213784	235.183008	69.22278	100.517272	181.985666	282.862082	122.4134	254.36103	303.869629	442.028604	129.54642	185.20885	334.786503	515.329832	180	185.146091	192.931361	193.572653	184.547047	190.847617	196.118126	199.917603
355204953	19	65.750049	112.978496	166.319174	169.986987	147.917367	112.260364	102.885406	225.833103	113.632017	195.310852	282.73055	285.113339	241.63372	184.244114	171.37812	370.512723	180	190.370571	195.190724	193.610023	186.509256	195.499232	199.571889	203.665659	0	0	0	0	0	61.097011	128.947509	157.426802	230.415325	68.813993	99.502686	180.091823	279.839282	119.64286	248.339545	296.801243	432.501855	128.858838	183.58676	331.220564	509.705966	180	185.369693	193.024417	193.651306	184.581497	190.950928	196.28768	200.020175
355205453	19.5	64.474084	111.717332	164.33809	169.428112	146.960367	111.379271	102.138856	224.910433	111.984325	192.663706	279.433872	283.437969	240.19719	182.452832	170.144474	369.173206	180	190.08194	195.125056	193.415122	186.273651	195.172516	199.409208	203.570258	0	0	0	0	0	60.262737	126.362884	153.6051	223.617233	68.257608	98.532185	177.228313	274.025486	117.838555	243.231754	289.822294	420.066235	127.93964	181.573261	325.903441	499.072606	180	185.50692	193.291877	193.793728	184.775623	191.09082	196.422426	200.221061
355205953	20	64.059445	111.170504	164.119158	170.497953	146.286703	110.925086	102.454196	226.786707	111.117199	191.588731	279.172627	285.68385	239.229942	181.859569	170.580898	372.134068	180	190.386754	195.14992	193.651555	186.265535	195.416989	199.62943	203.725527	0	0	0	0	0	59.188928	124.797398	151.871722	221.311085	67.732343	97.982716	175.824681	273.198172	116.319848	240.407787	286.930326	415.615646	127.133398	180.573107	323.751186	496.953604	180	185.273632	193.107186	193.696216	184.585058	190.998414	196.316576	200.147828
355206453	20.5	63.84238	111.085455	164.971017	172.056418	146.205055	110.99086	102.426409	228.976157	110.906108	191.387532	280.229973	287.538983	239.321503	181.980908	170.999003	375.057752	180	190.357736	195.126018	193.472248	186.405834	195.209944	199.582242	203.638003	0	0	0	0	0	59.12225	123.981112	151.263711	222.004868	67.733865	97.870521	176.110409	273.510095	115.951406	239.389067	286.009737	417.063323	126.751624	180.097103	323.633919	498.180185	180	185.637174	193.322637	193.990471	184.768442	191.228044	196.632015	200.367384
355206953	21	62.542444	109.334008	162.318254	170.275666	145.502643	110.04633	101.868608	227.589586	108.874279	188.4328	276.265815	284.556921	237.639305	180.622985	169.911353	373.163923	180	190.221666	195.070185	193.332077	186.285833	195.246492	199.61623	203.58218	0	0	0	0	0	57.578829	121.763538	148.603369	217.674155	67.091344	96.880514	174.740033	272.066374	113.321971	234.792112	280.940556	409.243991	125.699141	178.712625	321.498905	495.854242	180	185.245793	192.917385	193.614818	184.552635	190.896022	196.22729	200.03751
355207453	21.5	62.793219	109.479644	162.274514	169.510254	144.940518	109.818169	102.152046	227.78344	109.12876	188.688107	276.381521	284.082447	237.4588	180.23452	169.994717	372.922924	180	190.508018	195.214795	193.619053	186.28591	195.408388	199.640065	203.807071	0	0	0	0	0	57.727462	122.07887	149.279522	218.947198	67.026293	96.893612	174.91913	273.127221	113.528757	235.233024	282.155859	411.731322	125.33926	178.633574	321.75056	497.760412	180	185.662603	193.330685	194.013605	184.643418	191.263801	196.574681	200.452437
355207953	22	63.63837	110.613788	165.134751	173.113351	146.030702	110.738268	103.256214	230.616245	110.660194	190.98108	280.986361	289.994614	239.356931	181.698261	171.772468	378.489685	180	190.242149	195.348549	193.634915	186.39598	195.327278	199.700576	203.643495	0	0	0	0	0	58.335665	123.948844	151.697392	223.194324	67.18765	97.315568	176.226556	275.898198	114.92449	239.21772	286.691597	419.982543	126.051516	179.65653	324.038176	502.996364	180	185.425568	193.34692	194.010909	184.686618	191.037372	196.484533	200.303416
355208453	22.5	62.927674	110.074135	164.007569	173.474435	145.746572	110.456958	103.265768	230.869812	109.394567	190.017295	279.380717	290.030293	238.532938	181.272513	171.752267	379.212042	180	190.411821	195.290251	193.756108	186.309204	195.39776	199.716115	203.808375	0	0	0	0	0	57.525656	122.205034	150.065397	220.940461	66.740184	96.844154	175.368724	275.354936	113.144869	235.886297	283.495334	415.225891	125.160994	178.458451	322.923592	501.72978	180	185.625986	193.526426	194.057763	184.966167	191.308264	196.668536	200.476847
355208953	23	63.276406	110.242353	165.281331	173.718925	146.323314	110.466881	103.268269	231.895887	109.994262	190.58979	280.932853	290.968508	239.165659	181.297329	171.835185	380.207162	180	190.367398	195.269731	193.657246	186.38869	195.330046	199.874163	203.772531	0	0	0	0	0	58.271259	123.431525	151.043956	223.079342	67.114024	97.310118	175.871233	276.323899	114.303968	238.105213	285.766336	419.082836	125.815865	179.362136	323.898801	503.453782	180	185.404384	193.230191	193.801021	184.52107	191.044577	196.246468	200.062568
355209453	23.5	63.814841	111.182411	166.295144	175.780319	147.034593	111.176098	103.809654	232.976598	110.815099	192.034868	282.91296	294.475608	240.23885	182.315275	172.802731	382.310387	180	190.503751	195.431501	193.81223	186.4949	195.628393	199.94207	203.88203	0	0	0	0	0	58.713313	124.682195	152.808855	225.604498	67.416077	97.6197	176.655719	278.231144	115.393244	240.423358	289.180526	424.146365	126.506209	180.204013	325.31359	507.411943	180	185.640749	193.284196	194.000826	184.676667	191.157739	196.528664	200.303883
355209953	24	62.411998	109.360359	163.758781	172.901517	145.641454	109.978497	103.148512	231.572479	108.582645	188.626757	278.550985	289.719132	238.269979	180.811792	171.562101	379.625698	180	190.214519	195.221428	193.562821	186.212381	195.436136	199.816441	203.752901	0	0	0	0	0	56.820176	120.73375	148.575447	218.747871	66.650028	96.459177	174.660403	274.193233	112.035563	233.409975	280.955974	410.553907	125.158857	177.908671	321.071397	499.525122	180	185.538609	193.300656	193.941776	184.684123	191.113986	196.512155	200.340601
355210453	24.5	62.970982	109.48873	163.563015	173.280245	146.296041	110.381106	102.414233	232.026671	109.516404	188.84252	278.526278	290.667377	239.13771	180.83515	170.713591	379.947813	180	190.184756	195.186652	193.454795	186.116047	195.360656	199.517389	203.535554	0	0	0	0	0	57.950137	122.354132	150.771877	220.479564	67.302228	96.657941	174.199122	274.16222	113.851956	236.218659	284.616512	414.934042	125.940727	178.438107	320.457984	498.902393	180	185.50697	193.34006	193.918214	184.653735	191.030311	196.45756	200.313406
355210953	25	62.665186	109.240541	162.145816	171.673366	146.050686	109.92639	101.86899	228.484975	109.111695	188.266588	275.989677	287.15302	238.586324	180.341273	169.633967	374.506558	180	190.246315	195.173917	193.563024	186.103698	195.270619	199.446736	203.624381	0	0	0	0	0	57.542198	121.331686	150.115543	220.1243	67.035827	96.562726	173.527687	273.290145	113.131179	234.374213	283.870284	413.89684	125.496883	178.059006	319.585101	498.170888	180	185.384109	193.386962	193.929081	184.775432	190.962731	196.374885	200.199928
355211453	25.5	62.92794	109.58865	162.603709	170.775211	145.959361	110.30447	102.128666	228.307811	109.334606	189.076866	276.871117	286.349401	238.875348	181.095899	169.891107	373.929406	180	190.359338	195.141175	193.627904	186.122723	195.261969	199.43871	203.603662	0	0	0	0	0	57.372929	121.119541	150.980644	220.706633	67.186645	96.851204	174.559803	276.055655	112.653723	234.042447	285.401462	416.100529	125.779653	178.462791	321.464565	503.044968	180	185.537738	193.505682	193.905216	184.503245	190.920569	196.396413	200.280723
355211953	26	63.679953	111.513139	165.829693	176.426975	147.402706	111.69751	103.510829	232.575494	110.867471	192.448229	282.762556	294.991449	240.813263	183.363871	172.580258	381.678206	180	190.224222	195.041831	193.556006	186.025549	195.171076	199.428716	203.595235	0	0	0	0	0	58.2439	123.205945	154.193141	225.987579	67.585287	97.364028	176.841622	279.975163	114.39749	237.882897	290.930637	424.819908	126.594083	179.928298	325.251912	510.154161	180	185.443479	193.302912	193.839492	184.414063	190.97431	196.390022	200.119866
355212453	26.5	64.01906	111.704652	167.391059	176.864833	147.440152	111.882385	104.131279	234.211356	111.187437	192.976235	284.807449	296.082794	241.312181	183.777352	173.549544	384.002056	180	190.145314	194.94454	193.489866	186.084435	195.245582	199.606259	203.480623	0	0	0	0	0	58.405073	123.918551	154.942309	227.690414	67.774234	97.881697	177.8465	282.945195	114.993643	239.130617	292.893875	428.438447	127.036977	180.327443	327.134762	515.178685	180	185.738823	193.555109	194.064208	184.653594	191.15074	196.524379	200.413416
355212953	27	63.985471	112.495731	169.209533	180.186693	148.247388	112.86259	105.308538	237.976643	111.245158	194.071049	288.099819	301.528571	242.256222	185.036269	175.363825	390.284387	180	190.212415	195.20516	193.491824	186.118491	195.240951	199.525077	203.453008	0	0	0	0	0	57.529613	123.127411	154.218832	228.303613	67.496068	97.777122	178.214187	284.942702	113.665595	237.679105	291.595681	429.604373	126.494835	180.243537	327.902866	519.05158	180	185.444581	193.410783	193.920623	184.225111	191.079229	196.346529	200.080973
355213453	27.5	63.640491	112.25017	168.917515	179.467229	147.653518	112.67777	105.108956	236.34492	110.896483	193.485315	286.946053	299.888555	241.340747	184.552274	174.709318	387.178869	180	190.266502	195.073119	193.504601	186.327437	195.18172	199.34927	203.332037	0	0	0	0	0	57.568949	122.197913	153.179948	226.309891	67.412402	97.23423	177.25336	282.731204	113.219361	236.153678	289.12458	425.485627	126.141564	179.283479	325.886882	514.466575	180	185.52461	193.44674	193.856053	184.700141	191.205617	196.401742	200.135355
355213953	28	63.904001	112.44159	167.937381	178.268141	147.773661	112.131878	104.466575	234.854169	111.219533	193.790363	285.821889	298.313548	241.790193	183.94908	173.757499	384.602728	180	190.334449	195.013274	193.457345	186.156102	195.408711	199.356766	203.4784	0	0	0	0	0	58.081082	123.325784	152.921744	225.58996	67.634674	97.330294	176.747651	280.055931	114.346021	237.844503	289.241888	424.414626	126.726507	179.578669	325.032896	510.269068	180	185.700778	193.488195	193.855495	184.745396	191.244289	196.518417	200.234565
355214453	28.5	63.210815	110.801365	165.602563	175.180499	146.842967	111.118116	103.189501	230.97365	109.725997	191.102522	281.796521	293.395517	240.256703	182.440226	171.888169	379.19541	180	190.357443	195.165567	193.716434	186.342154	195.3396	199.546074	203.615596	0	0	0	0	0	57.477085	121.378702	150.546095	221.622938	67.451958	96.873056	175.252257	276.714042	112.716492	234.244856	284.442483	416.376135	126.103812	178.515818	322.199089	504.216259	180	185.559184	193.278465	193.9044	184.536493	190.943566	196.368949	200.070198
355214953	29	63.548008	110.897499	164.974294	173.789526	146.969729	111.299973	102.643685	228.414138	110.569832	191.691529	280.730803	291.024626	240.617872	182.291194	170.965041	374.357392	180	190.251442	194.870069	193.440431	186.075585	195.225461	199.419669	203.461763	0	0	0	0	0	57.986563	122.203764	151.646594	222.460553	67.556654	97.107692	175.329043	276.717192	113.859807	235.902314	286.442943	418.572625	126.561315	179.342027	322.437255	504.70027	180	185.637906	193.419245	193.999162	184.708359	191.124863	196.539446	200.229149
355215453	29.5	64.393446	112.302044	166.277068	175.723594	148.171077	111.724331	103.263956	231.506599	111.789222	193.428429	283.166905	293.825922	242.150413	183.347425	172.019229	379.070564	180	190.0789	195.119566	193.570316	186.03323	195.216137	199.530892	203.506957	0	0	0	0	0	60.119208	127.281877	158.879702	237.059393	69.057098	99.598117	182.456693	294.727718	117.803315	245.471997	300.367589	445.546482	129.085738	183.789871	335.952591	535.827271	180	185.505817	193.169081	193.762984	184.594785	191.082451	196.29196	200.006196
355215953	30	63.666269	111.348408	165.76882	174.741228	147.615112	111.365183	102.987557	230.902199	110.900875	192.088912	281.890716	292.860352	241.415391	182.76964	171.605356	378.68254	180	190.076878	195.152764	193.534885	185.862305	195.102006	199.229999	203.578784	0	0	0	0	0	59.081592	125.135667	155.36181	230.165878	69.045336	98.870718	179.701907	286.554874	116.176324	241.249368	293.601408	433.01101	128.887624	182.566667	329.988247	521.962645	180	185.854841	193.656043	194.16585	184.848198	191.349457	196.671736	200.407927
355216453	30.5	63.543493	110.311202	164.621105	173.904902	146.790592	110.836116	102.985155	231.459069	110.122956	190.695733	280.602839	291.338653	240.431509	181.968631	171.519746	379.289595	180	190.071166	194.8914	193.418704	185.979988	195.245961	199.604713	203.581452	0	0	0	0	0	58.301462	122.790993	153.033269	225.412696	68.154716	98.071466	177.247439	283.376426	114.478254	237.216875	289.139841	424.596839	127.831714	181.075156	326.45909	516.227664	180	185.477899	193.309033	193.841847	184.51212	191.129633	196.485192	200.162854
355216953	31	63.341198	111.065624	165.509152	175.218936	147.548916	111.371929	103.202515	232.781177	110.463431	191.402758	281.483127	293.260626	240.963117	182.708741	172.011648	381.463156	180	190.342084	195.299404	193.710014	186.180171	195.449071	199.485622	203.714585	0	0	0	0	0	58.428691	123.734745	153.665085	226.9062	68.206711	98.264777	177.850033	284.126154	114.942857	238.572006	290.402439	426.832651	127.968517	181.232042	327.692369	517.413798	180	185.531216	193.306249	193.843256	184.549653	190.948333	196.403996	200.163184
355217453	31.5	63.186407	110.335335	164.700812	175.231918	146.803755	111.355561	103.160879	233.584456	109.590489	190.631278	281.101213	293.069625	240.146496	182.575226	172.320105	382.744027	180	190.279405	195.128785	193.622751	186.034382	195.169261	199.629252	203.585091	0	0	0	0	0	57.417409	122.254893	151.663801	224.156447	67.941334	97.464615	177.23799	282.845355	113.39794	235.872959	286.890612	422.001372	127.195618	180.323633	326.143653	515.172098	180	185.85532	193.426069	194.118297	184.824056	191.30188	196.716586	200.455885
355217953	32	63.00029	110.414182	165.266834	175.568987	147.028506	111.248775	103.61159	234.071825	109.458717	190.67458	281.251364	294.134198	240.273616	182.794503	172.557048	383.79104	180	190.36864	194.955831	193.595053	186.217328	195.375688	199.54964	203.558423	0	0	0	0	0	57.266153	121.188996	149.94883	222.253302	67.524395	96.995648	176.076471	281.341116	112.642994	234.002358	284.155587	418.414063	126.551392	179.212805	324.536155	512.465583	180	185.461073	193.35657	193.942202	184.562781	191.018491	196.524072	200.169279
355218453	32.5	64.603371	112.636072	168.480272	179.005075	148.357069	112.526517	104.540463	236.673238	111.954698	194.373106	286.577854	299.937203	242.524001	184.523379	174.218458	387.842925	180	190.486965	195.203372	193.629789	186.14613	195.325865	199.696569	203.577813	0	0	0	0	1	58.728264	124.530447	154.701655	228.846333	68.545141	98.445666	178.621544	285.180047	115.589882	240.282266	292.040636	430.909235	128.120069	181.623263	328.428124	520.078854	180	185.392874	193.29762	194.014593	184.549754	191.067325	196.523394	200.180802
355218953	33	63.139659	110.952457	166.185509	176.993746	147.203381	111.671727	104.308051	235.666456	109.807956	191.590674	282.897067	296.364893	240.802907	183.389469	173.599781	386.491401	180	190.432818	195.442754	193.800657	186.358961	195.526319	199.873329	203.935089	0	0	0	0	0	57.224001	121.195764	150.376803	223.141697	67.663131	97.170859	176.42148	282.628228	112.418484	233.790126	284.564602	419.753594	126.745338	179.53051	324.848052	514.620024	180	185.473678	193.395285	193.831958	184.564388	191.133835	196.489276	200.139773
355219453	33.5	64.270988	112.562133	168.115524	179.149425	148.099891	112.778898	104.687111	237.242694	111.429859	194.41945	286.452278	300.067486	242.469337	184.883583	174.464036	388.903707	180	190.194094	195.107595	193.546306	186.037117	195.201467	199.515372	203.494157	0	0	0	0	0	58.327278	124.084839	153.611589	227.863968	68.191983	98.315934	178.212059	285.020131	114.991379	238.90271	290.213977	428.155231	127.83674	181.473799	327.591313	519.734796	180	185.34943	193.230886	193.827469	184.533349	190.926773	196.343707	200.138475
355219953	34	64.507883	113.326746	169.361105	180.887634	148.685298	113.066602	105.342575	238.539192	112.167224	195.188773	288.063649	302.734938	243.248843	185.246015	175.440846	390.863487	180	190.65471	195.323613	193.910275	186.489848	195.634143	199.999838	203.873639	0	0	0	0	0	58.864936	124.56684	154.734205	229.569691	68.705331	98.503681	178.442621	286.776945	115.741732	240.443195	292.386207	431.610061	128.540641	181.786431	328.818804	522.219107	180	185.436607	193.355981	193.825067	184.643948	190.890119	196.398839	199.992806
355220453	34.5	63.693947	112.724243	168.076742	179.742422	148.014826	112.636627	104.614478	237.497151	110.881658	193.76034	285.838324	300.419686	242.036433	184.433644	174.255756	388.963928	180	190.178903	195.027574	193.459601	186.19861	195.076938	199.385708	203.330337	0	0	0	0	0	57.965314	122.426278	151.536047	224.679202	68.040755	97.899319	176.536447	283.450109	113.822633	236.179641	286.727302	422.825652	127.327284	180.404638	325.042748	515.904552	180	185.445564	193.281214	193.857505	184.78871	191.150101	196.562365	200.191066
355220953	35	65.581903	115.114572	172.151511	182.870078	150.115394	113.522923	105.587489	239.681223	113.533777	198.314694	292.377197	306.045796	245.118578	186.228607	176.062074	392.339974	180	190.174949	194.868224	193.355886	185.987056	195.284317	199.399108	203.299661	0	0	0	0	0	59.77635	126.258958	156.481257	232.579768	68.824857	99.545457	178.940477	287.410371	117.580625	243.557208	295.677835	437.658533	129.092954	182.88946	329.625203	524.050961	180	185.559108	193.334824	193.814719	184.539337	191.152358	196.399427	200.01861
355221453	35.5	64.416064	113.083798	169.680517	180.701141	148.850789	112.959781	105.365134	238.532829	111.728614	195.130657	288.387008	302.170048	243.2798	185.142047	175.16054	390.421968	180	190.033087	195.030544	193.359297	186.010382	195.21618	199.369038	203.345816	0	0	0	0	0	58.038084	123.041327	152.636439	226.19953	68.258931	98.081157	176.750364	284.275655	114.376387	237.360359	288.47264	425.75587	127.765353	180.917221	325.692256	518.081802	180	185.522674	193.281329	193.750587	184.646851	191.032392	196.372751	200.03927
355221953	36	65.730751	115.721268	173.012267	184.521165	150.211461	113.762771	106.163352	240.37218	114.294911	199.356327	293.833299	308.491037	245.61871	186.777584	176.597829	394.052644	180	190.301421	195.166462	193.580019	186.152133	195.227764	199.65992	203.481937	0	0	0	0	0	60.326596	126.890886	157.169351	233.434776	69.110952	99.33835	179.113613	288.247136	118.352944	244.938858	296.841607	439.76247	129.533395	183.246927	329.802818	524.966154	180	185.402305	193.088574	193.654127	184.479954	190.880283	196.260405	199.978965
355222453	36.5	65.991218	115.863244	173.425455	184.38911	150.774201	114.247023	106.454778	241.112694	114.432189	199.523545	294.775453	308.476203	246.128559	187.327936	176.810328	394.395406	180	190.341865	195.140751	193.445177	185.991619	195.277116	199.462206	203.404701	0	0	0	0	0	60.343897	127.447076	157.914592	235.388423	69.324696	99.744767	180.050908	289.261025	118.25446	245.706111	298.25687	442.144089	129.660278	183.889346	331.224981	527.124669	180	185.46411	193.184867	193.827516	184.635343	190.858275	196.382583	200.031865
355222953	37	65.274615	114.644429	171.749261	183.118711	150.078281	113.865532	106.375922	239.711537	113.239521	197.63256	292.107256	306.071165	244.955636	186.417547	176.548607	393.227566	180	190.311024	195.004865	193.354923	186.152627	195.107849	199.417462	203.473945	0	0	0	0	0	59.157501	124.858829	155.165127	230.748926	68.787873	98.50349	177.917481	286.85413	116.361907	240.827233	292.966704	433.291838	128.788303	182.022884	327.54667	522.296896	180	185.610534	193.29811	193.796213	184.771621	191.147162	196.442673	200.117494
355223453	37.5	66.865921	117.032974	175.525964	187.153331	151.149501	115.079061	107.508998	243.957924	115.937794	202.049339	298.963241	312.787382	247.416569	188.665694	178.791271	399.227207	180	190.251591	195.014205	193.42919	186.369706	195.305868	199.544148	203.333652	0	0	0	0	0	60.737611	128.591855	158.931413	236.435934	69.470276	99.95227	180.304529	290.56363	119.541371	247.513371	300.310337	444.465104	130.206417	184.322958	331.153397	528.489889	180	185.478704	193.299553	193.767338	184.621498	191.104116	196.405817	200.167135
355223953	38	66.192327	115.905871	174.383649	186.032503	151.076818	114.672616	107.140064	243.323118	114.675244	200.015908	296.376401	310.760052	246.73083	187.944786	178.233916	398.37077	180	190.15371	195.01264	193.279917	186.099417	195.263566	199.299914	203.264908	0	0	0	0	0	59.782697	125.905384	156.418674	232.233544	69.215533	99.385162	178.576632	287.88978	117.42459	243.026487	295.367387	436.383464	129.443405	183.260487	328.911125	524.463572	180	185.46167	193.18973	193.78608	184.612449	190.980808	196.302161	199.997663
355224453	38.5	65.827387	116.023423	173.589418	185.124326	150.412615	114.839007	107.471877	243.353854	114.277564	199.829242	295.455381	310.142557	245.986437	187.976643	178.559775	399.420486	180	189.96658	194.879597	193.381226	185.941542	195.143497	199.334068	203.207261	0	0	0	0	0	59.690517	125.811339	155.116403	230.376148	69.018341	99.087919	178.242549	287.113342	117.299878	242.383413	293.865336	433.378616	129.108017	182.676485	328.203225	523.482899	180	185.438369	193.256807	193.749321	184.507547	190.999187	196.386786	200.112289
355224953	39	66.679925	116.979469	175.20327	187.558024	151.160195	115.008418	107.847429	245.928607	115.6141	201.53366	297.86657	313.511166	247.499504	188.527177	179.158826	402.481785	180	190.230934	195.078859	193.527496	186.181028	195.248794	199.479184	203.526269	0	0	0	0	0	60.76278	127.985137	158.144553	234.701805	69.58046	100.122832	179.506507	289.881058	119.366876	246.533766	298.995703	441.246735	130.238464	184.339472	330.177171	527.64524	180	185.379165	193.143014	193.831943	184.570762	191.037375	196.276343	200.052243
355225453	39.5	65.670297	114.884703	172.424999	184.710654	149.86296	114.63947	107.050595	244.887886	113.58134	198.104861	293.334562	309.148051	245.0547	187.509534	178.050574	401.042324	180	190.465985	195.196049	193.577442	186.193649	195.386047	199.535462	203.706997	0	0	0	0	0	58.83406	124.1234	153.437869	228.117543	68.706681	98.60039	177.176747	285.502458	115.474338	239.016483	289.681103	428.848602	128.466568	181.721032	325.680707	520.287497	180	185.551271	193.326958	193.894891	184.694018	191.21836	196.541274	200.271849
355225953	40	65.297633	114.861165	172.853877	185.417104	149.816484	114.225644	107.339145	245.547738	113.363507	198.148578	293.815459	310.098466	245.228055	187.232269	178.361046	401.870151	180	190.174641	195.054033	193.473609	186.095098	195.161671	199.525679	203.502872	0	0	0	0	0	58.859686	123.692599	153.129198	227.475389	68.289381	98.622501	176.455714	284.675346	115.530779	238.688987	289.327665	427.26787	127.973005	181.352991	324.883006	519.33103	180	185.48918	193.166402	193.676751	184.682702	191.055731	196.352299	200.172589
355226453	40.5	65.550898	115.380239	173.265128	185.89091	149.869707	114.453903	107.181238	246.112841	113.345008	198.410008	294.175541	310.612312	245.214669	187.437017	178.633832	403.038914	180	190.286008	195.366465	193.612281	186.332868	195.620539	199.768852	203.72956	0	0	0	0	0	58.701908	123.335058	153.075822	226.624363	68.233748	98.086105	176.710617	285.439653	115.167912	238.164579	289.306725	426.678019	127.778293	181.057045	325.119975	520.191552	180	185.495259	193.314612	193.936971	184.558481	191.000081	196.523666	200.166858
355226953	41	64.44806	113.89475	171.317902	183.43316	149.493558	113.673864	106.814713	244.834701	111.794153	196.152673	291.33225	306.630269	244.129656	186.633981	177.783134	401.046772	180	190.161304	195.091981	193.35046	186.205785	195.416438	199.677167	203.651464	0	0	0	0	0	57.623064	121.508354	150.837601	223.400751	67.802135	97.699868	175.77176	284.613448	113.26638	234.481341	285.346239	420.635033	126.900371	180.108324	323.274883	518.383056	180	185.572916	193.18437	193.719528	184.557976	191.202433	196.665765	200.250257
355227453	41.5	63.275571	112.052858	168.534941	180.869758	147.670694	113.07479	105.711218	242.583488	110.194557	193.354409	287.065736	302.153217	241.817411	185.414204	176.289834	397.447854	180	190.14789	195.049846	193.357732	186.160672	195.501562	199.463396	203.500682	0	0	0	0	0	56.550644	119.000743	147.050041	217.988557	66.818355	96.299982	172.73163	279.496473	111.19205	229.476456	278.324184	409.777948	125.580675	177.885929	318.143951	509.020774	180	185.584047	193.377081	194.012612	184.961488	191.272236	196.799656	200.425338
355227953	42	64.097348	112.98905	170.393858	182.603826	148.587754	113.515101	106.816798	244.844847	111.544963	195.143929	289.635609	305.078899	243.181231	186.107699	177.451981	400.545624	180	190.228034	194.942008	193.513555	186.213685	195.454817	199.754489	203.755177	0	0	0	0	0	57.032861	120.34783	149.366569	220.718594	67.434874	97.101868	173.727144	281.560992	112.484445	232.471202	282.254442	415.517612	126.241506	179.001576	319.835135	513.350957	180	185.531105	193.206047	193.844362	184.753264	191.40601	196.78542	200.456929
355228453	42.5	62.996728	110.769951	167.351155	179.94065	147.415076	112.329842	105.557505	242.16536	109.13619	191.274837	284.524137	300.167319	240.865989	184.460797	176.073114	396.812552	180	190.177468	195.064304	193.461572	186.527511	195.569756	199.603158	203.621551	0	0	0	0	0	55.274738	116.728391	144.877397	214.567299	66.468914	95.838554	171.307926	277.558037	108.859807	225.401024	274.113696	403.191335	124.432921	176.64905	315.483567	505.98857	180	185.416778	193.040631	193.699507	184.591527	191.034046	196.470013	200.335741
355228953	43	63.51467	112.276512	168.759979	181.416875	148.468845	113.267663	106.463133	244.292752	110.287087	193.823609	287.624683	303.395191	242.467937	185.682447	177.214533	399.700876	180	190.434863	195.079889	193.51529	186.449462	195.48927	199.573063	203.632739	0	0	0	0	0	56.172872	118.7543	147.080008	217.934955	66.684819	96.202129	172.575967	279.445199	110.6903	229.152666	277.895791	409.561086	125.17403	177.682065	317.498026	509.633628	180	185.543613	193.273528	193.891533	184.989885	191.289716	196.67369	200.448807
355229453	43.5	63.518218	112.14937	168.909333	181.281525	147.991461	113.574496	106.141143	243.264871	110.157477	193.367954	287.175494	302.868625	242.139631	185.775225	176.61115	398.84708	180	190.311107	195.057264	193.447971	186.285874	195.351869	199.664702	203.6115	0	0	0	0	0	56.389356	118.46034	146.657909	217.26181	66.922814	96.270849	172.039872	279.205628	110.522178	228.634272	277.640011	408.895009	125.313922	177.709219	316.688229	508.93262	180	185.296375	193.161668	193.589811	184.411139	191.040243	196.41353	200.073417
355229953	44	61.541339	108.907285	164.202208	175.314969	145.827334	111.347742	104.104069	238.228813	107.386061	188.12535	279.093047	293.570107	239.052649	182.361915	173.460337	390.196004	180	190.3525	195.007909	193.404492	186.392414	195.431878	199.569831	203.709359	0	0	0	0	0	54.388133	114.574455	141.235651	208.108159	66.088609	94.881194	168.090918	271.199525	107.443065	221.244287	267.535353	392.117897	123.865505	174.990712	309.347977	494.557064	180	185.686829	193.416395	194.052172	184.877684	191.419521	196.803365	200.577443
355230453	44.5	62.276688	109.704581	164.515106	176.16491	146.319522	111.169135	103.963428	237.351925	108.343944	189.308129	279.826593	294.441607	239.575808	182.426297	172.983652	389.329289	180	189.994434	194.921578	193.408166	186.158341	195.293222	199.542057	203.388673	0	0	0	0	0	55.756296	116.578637	143.419758	211.269235	66.536158	95.487947	168.856023	271.95586	109.753877	225.534577	271.349634	397.575952	124.974351	176.444699	310.743517	495.899669	180	185.440197	193.228447	193.810182	184.632794	191.210258	196.463483	200.328528
355230953	45	62.244161	110.320456	165.667844	178.127526	146.271456	111.822255	105.202349	240.602036	108.219791	189.705562	281.615143	297.198646	239.560573	183.448274	174.616113	394.052277	180	190.193612	195.080049	193.465657	186.513279	195.431355	199.726112	203.709615	0	0	0	0	0	54.817293	115.931207	143.386747	212.689284	66.522674	95.333934	169.459591	274.43502	108.325678	223.739672	271.750782	399.407445	124.472743	176.00854	312.163632	500.63098	180	185.963143	193.513999	194.057042	184.849983	191.397286	196.909051	200.594482
355231453	45.5	63.141496	111.773433	168.318085	180.559204	147.684695	112.677971	105.906349	241.388744	109.743143	192.63263	285.911331	301.520406	241.524688	184.762659	175.874493	395.787359	180	190.205774	195.171687	193.309052	186.501644	195.454051	199.450881	203.494191	0	0	0	0	0	55.993746	118.184175	146.397946	216.183913	66.887901	96.094094	170.444612	276.866623	110.172103	228.010397	276.572987	406.606739	125.302244	177.286153	313.984709	504.117296	180	185.424627	193.198985	193.73069	184.759712	191.236563	196.423554	200.119517
355231953	46	63.925079	113.098668	170.912686	182.661666	148.601037	113.627769	106.489269	244.012009	111.074076	195.091118	290.077133	305.334539	243.261817	186.180791	177.327511	399.112513	180	190.42053	194.960668	193.301839	186.412195	195.403771	199.459369	203.509501	0	0	0	0	0	56.863029	119.994636	149.050483	220.792855	67.388344	97.085142	172.533265	280.191228	112.003363	231.802585	281.75008	414.796909	126.442611	178.950165	317.334378	510.296286	180	185.539182	193.294929	193.817647	184.767641	191.270036	196.436715	200.193424
355232453	46.5	62.605405	111.228602	167.666373	179.746828	148.038723	112.86924	105.927546	242.923699	109.174566	191.947759	285.218063	300.589243	241.770142	184.89397	176.142163	397.400251	180	190.326951	195.058482	193.420447	186.420707	195.384454	199.577728	203.482123	0	0	0	0	0	55.555578	116.897619	145.317288	214.741473	66.970674	95.953647	170.703365	277.064064	109.315065	225.975741	274.595132	404.186389	125.226886	177.025038	313.897265	504.669964	180	185.424529	193.131956	193.739501	184.729785	191.175227	196.407592	200.23222
355232953	47	63.994154	113.074458	170.140549	182.630175	148.941314	113.54123	106.623064	244.408043	111.132589	194.780385	289.117728	305.216427	243.502153	185.915189	177.096862	400.336364	180	190.197542	195.055409	193.503646	186.294806	195.444964	199.630643	203.677893	0	0	0	0	0	57.037954	120.447316	149.104036	220.782058	67.500853	97.216816	172.436075	280.663739	112.432749	232.466537	281.991176	415.223519	126.702728	179.523532	317.61198	511.022698	180	185.534022	193.12043	193.845153	184.793149	191.231555	196.509321	200.252252
355233453	47.5	63.890986	112.989016	170.231868	183.275766	148.877496	113.94706	106.292903	244.451096	111.071899	194.713918	289.151872	306.164069	243.540653	186.228823	176.950678	400.517685	180	190.26575	195.168485	193.404896	186.283457	195.477943	199.78218	203.721341	0	0	0	0	0	57.14879	120.461431	149.525907	221.389792	67.764107	97.41153	172.464733	281.445594	112.304323	232.342805	282.637683	416.598743	126.821467	179.637538	317.795249	512.433813	180	185.762966	193.501888	194.192057	184.909429	191.374657	196.75627	200.473221
355233953	48	63.181234	111.630009	168.226636	180.969771	147.738406	112.600061	105.848013	242.355926	109.813377	192.57657	286.018904	302.29463	241.853273	184.723917	175.841448	397.398217	180	190.250769	195.210105	193.571235	186.323284	195.54004	199.627973	203.686818	0	0	0	0	0	56.42287	118.366404	146.991962	217.372038	67.137693	96.680094	170.922439	278.18829	110.635832	228.471172	278.025192	408.771753	125.861151	178.28559	314.808827	506.95101	180	185.619581	193.325359	193.930299	184.685551	191.116931	196.555314	200.293423
355234453	48.5	64.003763	113.327829	170.038991	182.766237	148.617167	113.273042	106.333441	243.624816	111.094183	194.943132	289.069632	305.660795	243.364456	185.795516	176.724985	398.967948	180	190.485714	195.324513	193.714553	186.437479	195.566926	199.865629	203.855378	0	0	0	0	0	57.272049	120.683556	149.829169	221.410491	67.848696	97.483317	172.288503	280.736667	112.763994	233.018651	283.21736	416.395818	127.070424	179.610021	317.300473	511.447898	180	185.371113	193.169822	193.774685	184.573783	191.06382	196.422721	200.203493
355234953	49	63.233162	111.812439	168.644891	181.295229	148.08582	112.745393	105.780334	242.87847	110.063046	192.675957	286.776168	303.599945	242.42732	185.036449	175.877947	398.060166	180	190.388397	195.252273	193.521014	186.35072	195.405032	199.642766	203.747018	0	0	0	0	0	56.277887	119.302561	148.362063	219.046143	66.974068	96.940733	171.333539	280.124024	111.121226	229.984345	280.441495	412.217588	126.071034	178.647061	315.539577	510.168982	180	185.397047	193.246295	193.954112	184.696743	191.15608	196.718871	200.389588
355235453	49.5	63.025709	112.136055	169.004286	181.421128	148.357562	113.081192	105.958382	243.433696	109.906878	193.385549	287.414016	303.431824	242.116114	185.077323	176.215213	399.080401	180	190.004101	194.984259	193.366094	186.177235	195.168738	199.517983	203.444211	0	0	0	0	0	56.461608	118.62114	147.510696	218.071922	67.253839	96.585903	171.093399	279.362006	110.983835	229.055429	279.222189	410.588824	125.912751	178.239931	314.715924	508.864705	180	185.501317	193.087463	193.823628	184.577526	191.20355	196.392933	200.162913
355235953	50	65.113772	115.421435	175.756097	190.615898	150.046441	115.527737	109.42296	252.803969	112.914187	199.237538	298.614425	318.679019	245.66774	189.04114	181.787064	414.031641	180	190.402729	194.981735	193.540272	186.433694	195.497968	199.636725	203.579794	0	0	0	0	0	58.790452	125.26915	157.663309	238.641516	68.57093	99.781356	180.675159	302.810101	115.527335	241.421228	298.035441	447.893496	128.262506	183.967147	332.463928	551.616974	180	185.364713	192.93918	193.56931	184.543129	191.158985	196.268716	199.8756
355236453	50.5	64.21957	114.703816	174.252447	189.123013	149.355867	114.986758	109.27432	252.394526	111.489882	197.486726	296.098703	315.407747	244.373817	188.425073	181.234929	412.747958	180	190.162614	194.845656	193.125673	186.194812	195.190767	199.274365	203.41715	0	0	0	0	0	56.669123	120.36506	150.880311	225.602682	67.439089	97.955348	174.887178	289.275973	111.5996	232.361792	285.347029	424.379369	126.633055	180.334803	321.544479	527.132188	180	185.415151	193.004512	193.72401	184.590604	190.995737	196.448559	200.046387
355236953	51	63.974262	113.978997	172.021157	185.622079	149.009747	114.514621	108.396741	248.601082	111.079033	196.238668	292.929269	310.059089	243.580187	187.28253	179.441516	406.710541	180	190.467672	195.182348	193.652172	186.496487	195.683043	199.73758	203.614704	0	0	0	0	0	56.438095	118.753508	148.090773	220.080947	67.354797	96.806109	171.931768	282.548348	110.868137	229.144715	280.32653	413.659713	126.110216	178.724284	316.189224	514.272956	180	185.624493	193.376621	193.920737	184.942539	191.152836	196.561968	200.299768
355237453	51.5	64.695482	115.108217	173.555599	185.409847	150.064176	114.947923	108.498624	247.939389	112.332034	197.965392	294.54187	310.003828	245.132909	188.155723	180.037954	405.380356	180	190.54665	195.360501	193.590166	186.565935	195.633215	199.756138	203.767387	0	0	0	0	0	57.279913	120.831814	150.809327	225.309387	67.667184	98.182661	173.450495	286.716	112.647741	233.06407	285.233746	423.367791	126.990666	180.533417	319.469998	521.602548	180	185.640432	193.391786	193.960072	184.951374	191.246693	196.589396	200.342971
355237953	52	65.786282	117.667793	178.114906	191.773461	151.13616	117.365761	111.347413	257.010243	113.796295	201.842922	302.293298	319.816631	247.092468	191.973672	184.883095	419.916614	180	190.341255	195.069126	193.343208	186.683501	195.446029	199.539113	203.625489	0	0	0	0	0	57.253451	121.892367	153.017338	228.379687	68.179157	98.888352	176.358199	291.375253	112.62733	234.918924	289.468174	429.6682	127.752722	182.374222	324.286548	530.16837	180	185.482012	193.176254	193.662858	184.800667	191.167704	196.360039	200.077852
355238453	52.5	67.272374	121.673084	186.89833	202.206622	153.227664	120.073917	115.579632	268.386743	116.596846	209.276187	316.710536	336.821682	250.417526	196.306988	191.773541	439.003748	180	190.118212	194.782229	193.046837	186.354127	195.384793	199.221691	203.081386	0	0	0	0	0	57.726524	124.57453	157.988729	237.825714	67.904818	99.880101	178.732629	301.993919	113.605597	239.932389	298.814487	447.199565	127.371212	183.986166	328.652836	549.058649	180	185.368919	192.77992	193.376709	184.796893	191.015955	196.293645	199.854922
355238953	53	67.429974	121.141359	185.360425	200.615794	153.217343	120.031968	114.734197	265.924309	116.531032	208.039247	314.398059	333.681721	250.547791	195.970978	190.243024	434.446969	180	189.992456	194.624555	192.650134	186.246774	195.224053	199.004729	202.889146	0	0	0	0	0	56.850339	121.465385	151.471562	225.809343	67.640337	98.631116	172.5153	285.781623	111.855688	234.025368	286.413939	424.192839	126.872674	181.47901	317.728669	520.474119	180	185.16131	192.830061	193.420554	184.645746	190.892353	196.073838	199.811602
355239453	53.5	64.482269	115.820228	177.108129	191.377709	150.162572	116.700634	111.021263	257.256839	111.829306	199.189219	300.923983	318.593194	245.482087	191.05651	184.356797	419.928504	180	189.940836	194.668599	192.708463	186.261459	195.273999	199.139041	203.052319	0	0	0	0	0	54.054181	113.934972	141.618391	208.047555	66.39951	95.159397	163.87866	268.530751	106.407656	220.388405	267.534822	390.927912	124.278755	175.799306	301.909928	488.988417	180	185.639704	193.121224	193.941272	184.79075	191.3894	196.77891	200.54323
355239953	54	64.073177	113.24701	170.252974	180.052789	149.691613	115.190957	106.779883	242.869229	111.326586	195.236711	288.843205	301.273083	244.77305	188.260973	177.50669	397.479324	180	190.296202	194.951483	193.289912	186.386747	195.180081	199.563349	203.623927	0	0	0	0	0	55.266322	115.92383	143.448055	205.40035	67.288883	96.062679	163.778924	263.885149	108.905032	223.805271	271.42106	387.220026	125.802955	177.305749	301.659151	480.918821	180	185.630229	193.282803	194.20214	184.914317	191.359145	196.877856	200.701056
355240453	54.5	65.080206	116.444579	177.809831	192.483415	150.908252	116.989551	111.209598	257.727454	112.806083	200.221537	301.550371	321.611145	246.590133	191.451429	184.395626	422.254007	180	190.411616	194.932947	193.218792	186.435161	195.435981	199.426067	203.408274	0	0	0	0	0	55.536232	117.849093	148.734905	217.617376	66.950385	96.546094	168.290247	278.494696	109.489382	227.533526	281.81444	409.244263	125.65073	178.551001	310.10049	506.894767	180	185.245141	193.097861	193.826443	184.646837	191.222587	196.518402	200.228182
355240953	55	64.626182	116.05728	178.719766	195.473555	150.317246	117.062236	112.131877	262.534264	111.989475	199.859164	303.30355	326.183652	246.020593	191.71627	185.897759	429.17088	180	190.396811	195.019315	193.353885	186.464889	195.397562	199.561196	203.4901	0	0	0	0	0	54.505559	116.124044	147.386097	214.695406	66.404855	95.928716	167.492461	277.477422	107.503956	224.069864	278.808499	404.541646	124.568061	177.188179	308.559258	505.937518	180	185.528302	193.102588	193.89296	184.89458	191.134352	196.625196	200.380177
355241453	55.5	64.051459	115.66022	177.893752	195.88315	150.18615	117.057657	111.614369	262.644693	111.429188	199.034153	301.845941	326.363258	245.41505	191.393758	185.539119	429.606646	180	190.099176	194.821434	192.986644	186.236111	195.178835	199.248037	203.177867	0	0	0	0	0	54.151257	115.184252	146.300509	213.001451	66.174171	95.778264	166.39169	276.582108	106.868207	222.443736	276.361212	401.432147	124.230288	176.554017	306.768022	503.728937	180	185.583739	193.052609	193.831939	184.790054	191.216258	196.554284	200.290817
355241953	56	64.70123	116.053568	178.468355	196.72609	150.681273	116.85798	112.176553	263.650472	112.280438	199.355306	302.909592	328.029109	246.168815	191.360885	185.800945	431.093692	180	190.061546	194.993062	193.086663	186.421758	195.335633	199.395464	203.155833	0	0	0	0	0	54.37219	115.872906	146.971182	214.394457	66.52793	95.832973	166.491751	276.792515	107.544125	223.786929	277.785801	403.495073	124.774411	176.920828	306.678869	504.130411	180	185.560489	193.122787	193.87951	184.968836	191.331942	196.667035	200.42341
355242453	56.5	56.798598	93.564261	135.128211	142.630736	138.495156	99.21894	86.696601	192.9167	99.001206	162.377383	230.656244	239.154584	226.809135	163.043839	145.041128	316.913116	180	190.536878	195.844359	194.642845	186.654505	195.980109	200.628703	205.040881	0	0	0	0	0	49.147797	95.214818	109.849013	151.560954	63.123886	83.569689	129.126984	197.029302	97.321848	185.01385	209.332165	287.580434	118.38603	154.559291	239.330857	360.889179	180	185.674703	194.037082	195.278788	184.738501	191.453234	197.503875	201.782987
355242953	57	55.072814	92.782234	136.517521	148.347294	136.486032	100.033224	89.657062	205.897645	96.560546	161.004602	233.334194	248.571136	224.01491	164.52732	149.935841	338.85791	180	190.76324	195.727447	194.198598	186.749692	196.077111	200.465727	204.449244	0	0	0	0	0	48.891009	95.701328	112.242808	154.467816	63.215834	85.020803	134.155234	205.674008	97.014059	185.83864	213.192424	292.246296	118.878799	157.309237	248.522562	376.695338	180	185.692795	193.976277	195.208232	184.898289	191.532321	197.601989	201.769945
355243453	57.5	56.8944	97.61693	146.074597	160.452229	139.539534	103.608699	95.329139	221.935082	99.550046	169.111112	249.485192	268.693303	228.122706	170.316165	158.829126	363.566282	180	190.387013	195.314788	193.551854	186.434875	195.804411	199.913046	203.941251	0	0	0	0	0	50.279863	99.074193	117.074066	162.504967	64.559533	87.203407	138.996425	215.229614	99.572694	192.234243	222.718269	306.945964	121.211447	161.554286	257.149678	394.074409	180	185.868302	193.920918	195.050377	185.115941	191.547405	197.522869	201.6108
355243953	58	59.295833	105.292278	160.80363	179.150821	143.058939	109.222651	103.812164	246.021792	103.57126	181.524901	273.649659	299.456886	234.352254	179.131548	172.423022	402.616551	180	190.111617	195.021452	193.164583	186.495424	195.355528	199.45031	203.396015	0	0	0	0	0	51.709271	104.667604	127.9966	181.01748	65.284536	90.629224	150.145596	239.952244	102.37396	202.638163	242.696231	341.586133	122.555576	167.474781	277.441354	437.968646	180	185.600045	193.360645	194.267569	184.709615	191.303772	196.908087	200.894522
355244453	58.5	60.346552	107.536907	165.658127	184.849935	144.45432	111.377417	106.734971	253.038186	104.942922	185.301674	281.914345	308.641748	236.473223	182.24215	177.028844	413.903382	180	190.48086	195.249759	193.178268	186.581908	195.551521	199.661043	203.492052	0	0	0	0	0	51.730436	106.48106	132.505083	187.794956	65.293363	91.776737	154.70163	249.732651	102.372527	205.92547	250.952636	354.554919	122.393098	169.406629	285.723804	455.795213	180	185.594347	193.496028	194.270047	184.912033	191.310802	197.005937	200.889404
355244953	59	61.131767	109.012397	167.810848	186.407924	145.778676	112.168802	106.734394	253.766703	106.416155	188.122132	285.127622	310.929859	238.22843	183.551287	177.670264	415.543958	180	190.333481	195.012385	193.042197	186.496478	195.556713	199.583686	203.349931	0	0	0	0	0	52.406187	108.339808	135.951951	193.482093	65.40996	92.529747	158.016098	256.128057	103.355082	209.835699	257.400503	365.006059	122.500264	170.987673	291.220031	466.874495	180	185.376617	193.181674	194.045563	184.763181	191.260507	196.670571	200.571697
355245453	59.5	62.374438	110.74069	169.632455	188.084572	147.367408	112.632806	107.278564	254.370085	108.471802	190.642611	288.257046	314.186539	240.819038	184.519277	178.521774	416.468074	180	190.190651	195.121049	193.181374	186.530033	195.585876	199.612976	203.454083	0	0	0	0	0	53.231664	110.927773	138.870119	197.619367	66.013347	93.432275	159.49087	258.179194	105.39337	214.241104	262.84656	372.943862	123.566909	172.611421	293.889738	471.408293	180	185.692617	193.364882	194.097536	184.710025	191.291	196.78077	200.606367
355245953	60	63.240805	111.341508	171.052138	190.791024	147.675316	113.30171	108.001902	256.249516	109.71048	192.307015	290.685694	318.039781	241.8141	185.61637	179.472166	419.200704	180	190.338623	195.18309	193.356858	186.546058	195.544139	199.812545	203.491603	0	0	0	0	0	53.751596	111.676258	140.295915	200.993498	66.079789	94.041471	160.099516	260.653546	106.225164	216.031884	265.398418	378.259766	123.959626	173.341193	295.333973	475.123603	180	185.638352	193.362768	194.156711	184.86755	191.379078	196.920724	200.666143
355246453	60.5	62.447537	110.735149	171.615425	190.637179	147.739864	113.308564	108.352544	256.388045	108.63759	191.273285	291.133621	317.901216	241.235867	185.609193	179.751851	419.954655	180	190.444458	195.073266	193.225394	186.544375	195.782339	199.647261	203.56646	0	0	0	0	0	52.901868	110.346686	139.171807	198.713867	65.757507	93.186252	159.795263	260.517677	104.518467	213.468751	263.343002	374.533226	123.189149	172.316067	294.816483	475.166987	180	185.553864	193.242867	194.239009	184.728132	191.402805	196.961023	200.610664
355246953	61	62.528816	110.782166	170.246022	189.654519	146.909926	113.146267	107.774026	255.601875	108.513359	190.902081	289.49202	315.858533	240.370985	185.11646	179.004627	417.916152	180	190.225471	195.001542	193.15622	186.531001	195.559802	199.520736	203.336361	0	0	0	0	0	52.936359	109.51099	137.366929	196.177038	65.521227	93.049624	158.027414	257.108808	104.410333	211.702637	260.555807	369.649556	123.003797	171.647052	291.579409	468.300966	180	185.561221	193.260813	194.045439	184.813861	191.213573	196.785292	200.482244
355247453	61.5	56.875696	95.649582	139.952686	150.231074	138.835551	101.317684	90.226754	205.552909	99.26741	165.676214	238.245289	251.644931	227.597666	166.569105	150.782515	337.862773	180	190.575848	195.407567	193.735472	186.536267	195.646272	199.990864	204.149697	0	0	0	0	0	49.731475	95.284406	109.217187	146.346527	64.137381	84.336833	128.909986	192.727618	98.51123	184.843721	208.145846	277.195035	120.155159	156.346496	238.820899	353.172568	180	185.616453	193.986884	195.142885	184.652204	191.512983	197.42249	201.737185
355247953	62	54.84612	90.541911	129.671527	136.508004	135.784614	97.541863	85.2151	190.249592	95.866071	157.405358	221.569096	229.106023	222.006703	160.658415	142.932027	312.833727	180	190.666793	196.003286	194.519239	186.933873	196.148128	200.659106	204.902005	0	0	0	0	0	49.321493	92.659227	104.73025	138.90015	63.488372	83.12995	124.678308	185.130598	97.558237	179.96585	199.641812	263.669662	119.15304	154.126604	231.452165	339.600822	180	185.828776	194.204726	195.4436	185.173638	191.665387	197.79816	202.035847
355248453	62.5	57.040886	98.173921	145.19681	156.302243	138.750903	103.297786	94.369199	217.054248	99.606286	169.638166	247.436511	261.377333	227.450841	169.683039	157.415657	356.090148	180	190.463116	195.520831	193.603227	186.719945	196.020818	200.020704	204.208799	0	0	0	0	0	50.595877	97.284256	113.894354	154.748491	64.525607	86.350873	134.711977	206.321485	99.936161	188.744921	216.556924	292.614016	120.91987	159.643613	249.28181	377.766722	180	185.565303	193.831396	194.815797	184.970744	191.618535	197.429365	201.58404
355248953	63	60.048729	105.392389	159.973946	174.486958	143.744382	109.117303	102.822431	240.383789	104.651559	182.226255	271.851608	291.039074	234.884163	179.174959	170.856807	392.826697	180	190.302713	195.026311	193.124629	186.714904	195.652389	199.721484	203.572823	0	0	0	0	0	51.603331	101.822892	124.209635	172.473308	65.166484	89.350174	145.489274	230.380701	101.792907	197.756555	235.405559	325.473829	122.048585	165.200262	268.862025	420.542857	180	185.600588	193.630646	194.418403	184.801723	191.46628	197.049551	201.024595
355249453	63.5	62.239618	110.346556	167.093616	181.897229	146.658273	113.073424	106.711111	249.157796	108.242575	189.958906	284.0719	303.543656	239.785169	184.870678	177.520741	407.681396	180	190.338356	195.00332	193.294869	186.815192	195.852058	199.70019	203.593087	0	0	0	0	0	52.243114	106.483758	133.652949	190.874413	65.6449	92.059367	156.000852	253.7655	103.113521	206.184313	252.912948	359.367473	122.996128	170.160418	287.51964	462.517202	180	185.449301	193.142814	193.980496	184.756463	191.193429	196.78956	200.690009
355249953	64	61.85272	110.114125	167.647196	183.056311	146.788451	113.357013	107.996531	253.970463	107.449576	189.715983	285.13531	306.000787	239.773219	185.668895	179.649196	415.284635	180	190.317464	195.16905	193.176623	186.783853	195.767369	199.911582	203.745486	0	0	0	0	0	50.679685	106.31151	136.659121	198.575945	64.68284	92.82503	161.365352	268.423926	100.303046	205.603677	258.277743	373.768271	121.236118	170.957356	297.501148	488.949627	180	185.37556	192.992926	193.767863	184.826227	191.238666	196.76152	200.451318
355250453	64.5	63.060277	111.582452	169.578796	186.01327	148.200665	114.324179	108.792092	255.355029	109.375431	192.214904	287.920462	310.071024	242.365931	187.143313	180.675261	417.705995	180	190.290176	194.999234	193.075395	186.673484	195.606585	199.628504	203.523403	0	0	0	0	0	51.769227	108.446239	138.187011	202.078388	65.361723	93.630933	162.655458	271.691318	102.217526	209.256802	261.407949	380.528459	122.537607	172.918286	300.013113	494.609295	180	185.415955	193.028769	193.797563	184.858829	191.199573	196.7788	200.478819
355250953	65	61.964047	109.825915	166.070234	181.608753	147.57935	113.32926	107.383702	251.596889	107.797915	188.975244	281.948891	303.426716	241.268652	185.399201	178.341438	411.722469	180	189.836494	194.825826	192.884772	186.443638	195.357617	199.474904	203.401914	0	0	0	0	0	51.026343	106.480152	135.434439	199.032512	65.383703	93.299742	161.014546	268.924898	100.801251	206.031935	256.316107	374.644873	122.343609	172.115087	296.870788	489.234467	180	185.15574	193.046321	193.712729	184.816649	191.218789	196.66665	200.423991
355251453	65.5	60.840712	107.499054	162.540405	178.717899	146.155509	112.239661	106.59137	249.594571	105.832637	185.278096	276.583239	298.196984	239.016951	183.774458	176.735822	408.612954	180	190.334929	194.93467	193.141675	186.697186	195.872033	199.53544	203.727272	0	0	0	0	0	50.092138	104.224183	131.999049	194.751892	64.713736	92.33615	158.924025	264.85492	98.880026	201.329417	250.383377	365.948629	121.44559	170.326421	293.440181	482.861593	180	185.535072	193.161837	193.816957	184.832205	191.529034	196.985532	200.813602
355251953	66	61.163018	107.094622	162.381447	178.22982	146.497893	111.972014	106.009189	248.540791	106.370447	185.257891	275.800315	297.420127	239.499732	183.853254	176.408741	406.90583	180	189.938047	194.698586	192.902679	186.304729	195.541296	199.362991	203.463731	0	0	0	0	0	50.383678	104.981565	132.867241	195.940751	65.200894	92.161741	159.757066	266.08924	99.738628	202.952931	251.396247	368.529869	121.981672	170.893622	294.805969	485.130111	180	185.48373	193.323167	193.929079	185.228712	191.602069	196.887669	200.861712
355252453	66.5	60.780605	106.690453	161.109374	176.063034	146.194182	111.802567	105.597369	247.301215	105.777739	184.222075	273.385605	293.914931	239.067056	183.348405	175.545206	404.803007	180	190.200933	194.893835	193.087686	186.701108	195.449092	199.723717	203.698212	0	0	0	0	0	50.095354	104.569512	132.109102	195.43483	65.020482	92.802694	159.549927	266.140322	99.356086	202.288505	250.77093	367.647771	122.120953	171.326634	294.115506	485.263529	180	185.373581	193.094904	193.660823	184.830508	191.350332	196.682024	200.539648
355252953	67	59.519062	104.499653	157.447374	171.908883	144.654171	110.488538	104.544357	244.337866	103.664291	179.980598	267.698356	287.618855	236.609014	181.153399	173.672877	400.004879	180	190.276511	194.90091	193.112475	186.711481	195.694291	199.641074	203.666348	0	0	0	0	0	48.816255	101.940553	129.369879	190.500849	64.517204	91.685009	157.990621	263.194637	97.152888	197.159907	244.96834	358.692037	121.091	169.18741	291.248458	479.757381	180	185.603285	193.201253	193.914407	184.962718	191.466925	196.991617	200.820911
355253453	67.5	60.797226	106.148386	159.950833	175.260081	146.003795	111.732115	105.436303	245.974873	105.811604	183.332852	272.341643	292.624101	239.001207	183.102934	175.445829	403.500651	180	190.424172	195.013651	193.366994	186.745061	195.756917	199.784286	203.871381	0	0	0	0	0	50.423225	104.497896	132.398182	195.962449	65.424669	93.194873	160.212137	266.530623	99.726268	202.487129	251.139537	369.08831	122.790486	171.703415	295.072787	485.904696	180	185.306517	193.100116	193.802047	185.083541	191.357827	196.864006	200.708915
355253953	68	60.267772	104.948522	158.114102	172.813753	145.788034	111.818057	105.354809	245.286262	104.823268	181.288804	269.092134	289.18528	238.372346	182.59376	174.721367	401.946527	180	190.15164	194.781283	193.112488	186.479573	195.497343	199.590274	203.626767	0	0	0	0	0	49.710783	103.372517	131.298308	193.516012	65.350381	92.567817	159.116399	265.437128	98.504593	200.431882	249.205042	364.968877	122.35867	171.170281	293.656675	483.718923	180	185.339023	193.037079	193.846273	185.0204	191.294693	196.804329	200.582516
355254453	68.5	60.206306	105.091002	158.591276	172.731008	145.547234	111.026082	104.948501	245.695433	104.586273	181.451423	269.516807	288.916648	237.967401	182.32495	174.371543	402.236509	180	190.094181	194.884068	193.107489	186.497342	195.605985	199.77208	203.73108	0	0	0	0	0	50.087019	103.770142	131.619335	193.332224	65.499193	92.66063	158.716941	264.322408	99.124247	200.728694	249.219726	364.40882	122.757057	171.221482	292.935142	482.152358	180	185.63127	193.172507	193.798446	184.826261	191.531912	197.006304	200.691779
355254953	69	61.375378	106.718152	160.231352	175.92453	146.597891	112.553563	105.965652	248.034872	106.504667	184.038437	273.192376	294.061865	239.784378	183.959103	176.282989	405.893941	180	190.122893	194.899646	193.058643	186.480298	195.430521	199.622156	203.519851	0	0	0	0	0	51.283268	106.312039	134.663305	198.305206	66.254227	93.876921	161.043962	267.526825	101.41439	205.833018	255.416154	373.266467	124.09319	173.140706	296.928507	487.797565	180	185.376047	193.169444	193.885915	184.957973	191.374152	196.826206	200.653507
355255453	69.5	59.743492	104.580802	157.827318	172.755149	145.333036	111.128955	105.27045	245.91287	104.16842	180.533658	268.497464	288.759221	237.458753	182.276523	174.905944	402.43612	180	190.154656	195.002886	193.271935	186.573999	195.646386	199.827884	203.80417	0	0	0	0	0	49.914224	103.84092	131.983528	194.00526	65.394802	92.566061	159.409852	265.320814	99.062745	200.833301	250.071965	365.69537	122.707891	171.303081	294.0461	482.98662	180	185.329528	192.867458	193.623752	184.576403	191.269976	196.522692	200.416358
355255953	70	61.100866	106.234416	161.139685	175.137771	146.353902	112.219415	106.149517	247.311038	106.258599	183.872592	273.043997	292.709036	239.503758	183.921299	175.953862	405.102113	180	190.352966	195.09176	193.267309	186.717775	195.745539	199.996023	203.782039	0	0	0	0	0	51.788605	106.778019	135.935615	199.306248	66.47301	94.144454	161.421379	268.063183	102.0713	206.6501	257.041798	375.575247	124.538945	173.732341	297.785158	489.01552	180	185.503265	193.335876	193.998552	185.000104	191.551718	196.9279	200.739953
355256453	70.5	61.30828	106.530504	160.624587	174.985668	146.856655	112.162125	105.913603	247.945271	106.421893	184.064319	273.182899	292.626098	240.032136	184.022355	176.083465	405.612875	180	190.0909	195.010962	193.197152	186.461852	195.516941	199.734014	203.750211	0	0	0	0	0	51.90649	107.7184	136.445763	200.565754	66.860551	94.379899	161.962502	269.488868	102.493401	208.183232	258.460634	377.643924	124.961474	174.27846	298.575935	490.952326	180	185.625119	193.17115	193.885352	185.07463	191.453179	196.858808	200.823493
355256953	71	60.802108	106.324815	160.528076	174.943254	146.442146	112.827804	105.753099	247.974816	105.813701	183.612164	272.912673	292.864708	239.314621	184.308214	176.041745	405.735067	180	190.36561	195.271356	193.447611	186.948691	195.788911	200.085216	203.96499	0	0	0	0	0	51.61063	107.307591	136.466691	198.68274	66.465925	94.31915	161.69506	268.401037	101.968417	207.001922	257.796236	374.608827	124.417307	173.743876	298.278318	489.025421	180	185.545513	193.230292	193.987752	185.032329	191.449725	196.828238	200.665838
355257453	71.5	62.222631	108.403498	163.365294	178.433131	147.627008	113.674513	106.897229	251.014148	107.893711	186.945503	278.174416	298.307623	241.531308	186.047938	177.756029	410.90536	180	190.391916	194.995797	193.381188	186.647602	195.696409	199.849142	203.81795	0	0	0	0	0	52.966466	109.69092	139.599418	204.366234	67.19248	95.462682	163.542699	271.664286	104.640439	212.076966	263.919755	384.025638	125.783776	175.778216	301.54149	494.540729	180	185.643998	193.148253	193.969343	184.98793	191.364368	196.942735	200.738725
355257953	72	61.818981	107.913434	162.99096	178.905306	147.535441	113.321379	107.313168	250.622498	107.369545	186.201882	277.660756	298.679936	241.262267	185.73829	178.07794	410.727899	180	190.198403	194.992294	193.169119	186.641015	195.455136	199.620564	203.634237	0	0	0	0	0	52.892923	109.233675	139.347653	203.579792	67.104961	95.281881	163.722376	271.510373	104.394832	211.576238	263.768541	383.401886	125.665872	175.615371	301.567947	494.812563	180	185.315507	192.886258	193.718626	184.702804	191.026692	196.617492	200.487994
355258453	72.5	61.700759	108.361428	163.837596	178.572064	147.523426	113.651107	106.980026	250.863302	107.679049	186.890556	278.331931	298.397052	240.988383	185.847631	178.004914	410.141544	180	190.001759	194.950909	193.068514	186.464134	195.412407	199.475811	203.556213	0	0	0	0	0	52.973041	109.69371	139.622897	203.108314	67.088282	95.007169	163.826363	271.399102	104.534739	211.676628	264.107242	382.752872	125.838281	175.326187	301.599998	494.566396	180	185.392929	193.097402	193.935479	185.023989	191.502427	196.721887	200.612588
355258953	73	62.853513	109.648343	165.636668	180.940179	149.099226	114.074715	108.022518	252.238314	109.223025	189.21216	281.687765	302.258838	243.43529	186.963306	179.172326	412.859355	180	190.377435	195.084915	193.469873	186.724922	195.712699	199.77693	203.810694	0	0	0	0	0	54.510576	112.145362	142.638442	207.057107	67.947446	96.123955	165.388732	274.056834	107.145713	216.562323	270.039672	390.295634	127.03175	177.326788	304.588528	499.807221	180	185.691403	193.240993	194.045955	184.828589	191.639687	196.861429	200.732247
355259453	73.5	61.175942	107.306266	162.510883	177.241551	147.095383	112.889509	106.701493	249.243757	106.377384	185.140264	275.980833	295.986539	240.03907	185.062	177.142994	408.244268	180	190.27543	195.037629	193.282868	186.674538	195.6073	199.672534	203.740692	0	0	0	0	0	52.397019	108.207687	138.046151	200.867334	66.910284	94.126098	162.648266	269.485741	103.484038	209.402514	261.435617	378.081869	125.11796	174.143425	299.764488	490.65137	180	185.596863	193.23711	193.869394	184.847723	191.390055	196.625592	200.533647
355259953	74	62.461019	108.503684	163.948096	178.816612	147.806712	113.660909	106.88881	250.475144	108.430085	187.208902	278.783092	298.633099	241.689836	185.699724	177.637863	410.052567	180	190.044939	194.977515	193.316376	186.478439	195.354803	199.624284	203.709938	0	0	0	0	0	53.465078	110.425837	140.475322	204.325847	67.402204	95.250035	163.529187	270.420486	105.450252	213.330303	266.039745	384.884984	126.057321	175.519274	301.250338	493.016393	180	185.247449	192.979691	193.871849	184.589745	191.166053	196.633484	200.372998
355260453	74.5	62.954827	109.259364	165.117106	180.531935	148.508694	113.833167	107.651047	251.661188	108.84276	188.440308	280.775365	301.245205	242.533457	186.194691	178.663959	412.267211	180	190.054845	194.959467	193.197455	186.509403	195.513869	199.54518	203.52846	0	0	0	0	0	53.710932	111.372287	141.840219	206.801785	67.218883	95.319978	164.038736	272.771078	106.265368	214.936869	268.491296	389.143444	126.108606	176.065553	302.896446	496.84272	180	185.559453	193.137188	193.858261	184.73684	191.271803	196.691059	200.472085
355260953	75	61.374136	107.949954	163.940777	179.027897	146.793629	113.34789	107.597722	251.717261	106.573833	186.20907	278.709926	298.93172	240.049737	185.507579	178.522501	412.094988	180	190.042587	194.803149	192.961714	186.489362	195.457782	199.577396	203.483817	0	0	0	0	0	52.16384	107.990661	138.634777	201.856767	66.521114	94.249189	162.82938	271.190938	103.143128	209.041462	262.489704	380.357619	124.394573	173.774589	300.282605	494.26849	180	185.344572	192.952129	193.605906	184.736909	191.240827	196.657504	200.367568
355261453	75.5	63.277171	111.330412	168.594221	183.087476	149.172572	115.428069	109.380571	255.345416	109.900681	192.063859	286.460055	305.857072	243.903832	188.712833	181.640203	417.726953	180	190.172511	194.774455	193.037178	186.451892	195.599254	199.475915	203.5058	0	0	0	0	0	54.054925	112.393912	144.01232	210.672432	67.447144	95.725247	166.525603	278.168886	106.678526	216.924882	272.371128	396.946382	126.195535	176.914615	307.059773	506.978095	180	185.545233	193.149435	193.8418	184.877377	191.419828	196.557666	200.367581
355261953	76	62.190225	109.775218	166.295778	179.285573	148.509691	114.602431	108.718211	252.233542	108.199017	188.956687	281.960653	299.527962	242.593785	187.483637	180.030926	412.264103	180	190.05351	194.945917	193.05665	186.466634	195.453281	199.65027	203.510424	0	0	0	0	0	53.276203	110.309481	142.152461	207.292264	67.165644	95.493286	165.511469	276.575841	105.152831	213.587891	268.988117	390.616809	125.711537	176.064615	305.229773	503.637881	180	185.5881	193.167251	193.81984	184.885502	191.380857	196.660422	200.446357
355262453	76.5	62.131556	108.708772	163.07499	175.729224	147.455867	113.308052	106.973858	247.501493	107.846618	187.17109	277.395428	293.701419	241.230061	185.688069	177.615597	405.107623	180	190.496201	195.25698	193.542088	186.778092	195.894112	199.895798	204.101726	0	0	0	0	0	53.220132	110.190022	140.344816	205.33215	67.164465	95.187057	164.386787	273.893168	105.197183	212.952109	266.004309	386.529914	125.716592	175.571327	303.16713	498.985146	180	185.549003	193.165578	193.924104	184.702745	191.40014	196.793891	200.516104
355262953	77	61.72301	107.870985	162.353147	173.708456	147.603309	113.122859	106.303584	245.454439	107.358235	185.998318	275.654765	290.797079	240.969101	185.286182	176.601093	401.862695	180	190.163338	194.959976	193.29857	186.50724	195.370395	199.597367	203.792168	0	0	0	0	0	53.435845	110.211839	140.528118	205.015004	67.420706	95.262087	163.93761	272.983826	105.633367	213.309332	265.726049	385.974963	126.260101	175.838418	302.651203	497.657608	180	185.447447	193.167303	193.807177	184.950474	191.29327	196.74772	200.596446
355263453	77.5	60.766786	106.230314	159.789072	172.192003	146.649231	112.67355	105.600848	244.388057	105.676093	183.346414	271.993009	288.281486	239.378334	184.154948	175.472895	400.335376	180	190.482793	195.219058	193.361233	186.82386	195.793072	199.914789	204.04387	0	0	0	0	0	52.539539	108.437554	137.910492	201.728172	66.893668	94.596115	162.725114	270.377298	103.85396	209.802865	261.382317	379.990189	125.200099	174.386864	300.388611	493.169759	180	185.638251	193.336635	194.034711	185.007746	191.48222	196.857708	200.688018
355263953	78	59.971745	104.793198	158.179974	170.197139	145.061702	111.341548	104.601265	241.787223	104.206432	180.815628	268.670651	284.647309	237.248117	182.446394	173.891024	396.433423	180	190.441414	195.292622	193.614595	186.846828	196.015182	200.14435	204.118015	0	0	0	0	0	51.78057	106.784037	135.617692	198.552203	66.334207	93.594132	161.340834	267.361701	102.355417	206.437882	257.15666	373.694807	124.326807	172.80398	297.533644	487.82354	180	185.352242	193.039722	193.89274	184.672215	191.28572	196.647688	200.53808
355264453	78.5	59.924844	104.974686	158.233599	170.630735	145.495927	111.450427	105.169102	242.785625	104.464782	181.417474	269.143888	285.281817	237.788832	182.821896	174.389044	397.370141	180	190.252536	195.015654	193.431987	186.715495	195.540505	199.859834	203.73028	0	0	0	0	0	52.262559	107.742921	137.026236	199.995163	66.605364	93.863899	161.907064	268.773571	103.213516	208.388285	259.328201	376.875331	124.653859	173.668866	298.553953	489.846834	180	185.428295	193.12948	193.790998	184.792484	191.347496	196.766511	200.545382
355264953	79	59.462491	103.867515	156.218174	168.56691	144.681349	111.244884	104.535545	241.187967	103.393605	179.387979	266.056441	281.654901	236.523359	181.844316	173.507443	395.06174	180	190.043255	194.761001	193.21536	186.360542	195.524261	199.524779	203.713199	0	0	0	0	0	51.520575	106.058393	134.858081	196.451157	66.274953	93.558005	160.302935	266.526381	101.465183	205.034114	255.528478	369.722003	123.986888	172.692295	296.459006	486.33857	180	185.418268	193.082783	193.85065	184.88729	191.236055	196.746137	200.465743
355265453	79.5	58.996384	102.994201	155.151932	166.828802	144.066634	110.325005	103.688163	240.226341	102.779095	178.037547	263.887208	279.293	235.360958	180.701494	172.506122	393.273168	180	190.42734	195.215624	193.485515	186.785226	196.141539	200.03012	204.018936	0	0	0	0	0	51.063869	105.139995	133.647728	192.351409	66.045394	93.060646	160.040718	264.227364	101.114184	203.508408	253.020144	362.13161	123.72082	171.77093	294.609423	481.42389	180	185.478383	193.283173	193.872704	185.067365	191.45301	196.855412	200.597538
355265953	80	60.580241	105.530025	158.775667	171.285816	145.717443	111.862206	105.333068	243.812947	105.220927	182.179111	270.256635	286.479567	238.411598	183.121268	174.890066	399.897621	180	190.309317	195.082295	193.428825	186.75144	195.825917	199.981744	203.835904	0	0	0	0	0	52.657367	108.44596	138.189837	199.853877	66.895785	94.713416	162.724609	269.706934	104.060601	209.863571	261.285649	376.671748	125.260751	174.703994	299.920765	491.987551	180	185.487019	193.155132	193.871627	184.823399	191.322498	196.69562	200.514805
355266453	80.5	59.039283	103.545313	156.265464	168.975971	144.627907	110.963623	104.6509	242.508333	102.971196	178.820564	266.014369	282.273444	236.253348	181.77611	173.884067	397.233941	180	190.098704	195.0982	193.338212	186.573031	195.673387	199.783017	203.761208	0	0	0	0	0	51.167745	105.26828	134.314029	194.88187	65.773933	93.383011	160.796912	266.324527	101.067431	203.646419	254.397833	367.204501	123.696189	172.092369	296.438861	485.431071	180	185.54333	193.241474	193.927773	184.845246	191.515566	196.897225	200.67465
355266953	81	60.65961	105.317744	158.394945	170.975069	146.042395	111.943076	105.038922	243.584446	105.126779	181.860797	269.605897	285.2487	238.726569	183.107658	174.637725	398.749536	180	190.437193	195.210076	193.453092	186.714569	195.799983	199.986565	203.946109	0	0	0	0	0	52.543177	108.520096	137.703889	200.261995	66.901549	94.717865	162.936168	269.096542	104.006951	209.912246	261.214013	377.16135	125.305886	174.514971	300.131468	491.226397	180	185.444382	193.151858	193.943503	184.9502	191.46207	196.830086	200.656603
355267453	81.5	60.567183	105.738494	158.792208	170.491357	145.963718	111.859332	105.19261	242.652506	105.174843	182.147025	269.71825	284.791358	238.880603	183.254673	174.573747	397.631884	180	190.411367	195.175831	193.571628	186.879911	195.875311	200.051495	204.068071	0	0	0	0	0	53.003182	108.918662	139.133135	201.951607	66.991785	95.227626	163.718656	270.782595	104.517932	210.692068	263.422154	380.108162	125.57152	175.441652	301.774179	494.05285	180	185.649066	193.306822	193.960405	185.185564	191.558441	197.047913	200.774463
355267953	82	59.864886	104.424623	156.543873	168.728566	145.104745	111.618775	104.173698	240.915052	104.090994	180.174714	266.348272	282.097225	237.471439	182.49697	173.371384	394.523194	180	190.211679	194.877128	193.176337	186.529986	195.502555	199.685206	203.752695	0	0	0	0	0	52.304468	107.535129	137.44926	198.534044	66.90618	94.359508	162.647508	269.192643	103.27187	208.076161	260.030771	373.648535	125.091292	174.176113	299.794491	490.599146	180	185.556299	193.278161	193.915948	184.866996	191.473058	196.891449	200.683429
355268453	82.5	61.485774	106.926523	160.274142	172.390444	147.384039	112.755583	105.705356	244.258071	106.791035	184.481845	272.492752	288.240787	240.884787	184.757058	175.59702	399.920433	180	190.156185	195.121603	193.251678	186.591868	195.523264	199.619931	203.759914	0	0	0	0	0	53.847909	111.465454	141.998048	205.566692	67.993529	95.90775	165.522177	274.529499	106.492271	215.074114	268.811843	387.012093	126.910039	177.147175	305.064377	500.401213	180	185.412468	193.159986	193.910384	184.858606	191.29233	196.691107	200.599326
355268953	83	60.872795	106.917829	160.814974	173.252423	147.158501	112.986948	106.585149	247.234613	105.832985	184.229009	273.713041	289.372536	240.263296	184.972474	177.137518	404.422517	180	190.328489	194.931334	193.156528	186.553618	195.610969	199.756365	203.67912	0	0	0	0	0	52.562699	108.657826	140.195301	202.678735	67.02862	94.917568	165.354613	274.592625	103.976707	210.406638	265.047577	381.816879	125.539541	175.487371	304.498527	500.472035	180	185.522671	193.294213	193.969769	185.179974	191.459674	196.894826	200.462282
355269453	83.5	62.571618	109.190845	164.340046	177.262178	148.445749	114.186639	107.733382	249.66852	108.405669	188.339551	279.006617	295.694074	242.9069	186.730545	178.850155	408.334333	180	190.156682	195.106388	193.16344	186.613491	195.559705	199.706304	203.578831	0	0	0	0	0	54.265376	111.823859	143.347551	207.96773	67.719166	96.41419	167.068498	277.980752	106.792972	216.243772	271.493575	391.196144	126.933436	177.664401	307.720609	506.068462	180	185.467479	193.048217	193.825752	184.923151	191.277092	196.615703	200.358766
355269953	84	62.790473	109.765178	165.238646	178.012264	149.307005	114.576766	108.094414	250.378088	108.899793	188.912163	280.513765	296.93815	243.722872	187.525568	179.37971	409.675691	180	190.38819	195.169705	193.486466	186.954218	195.793495	200.057386	203.842029	0	0	0	0	0	54.276411	112.253268	144.545956	209.094212	67.896573	96.547742	167.091818	277.893333	107.2037	217.148766	273.249497	393.334493	127.072698	177.953862	308.274111	506.173094	180	185.410818	193.028129	193.739859	184.788678	191.357655	196.601706	200.411877
355270453	84.5	61.038168	107.659002	161.359556	174.050772	147.241084	113.340727	106.770166	247.100587	106.355006	185.203715	274.539593	290.45303	240.717376	185.431327	177.188029	404.177149	180	190.278075	195.130125	193.223773	186.636499	195.704371	199.884128	203.668988	0	0	0	0	0	52.219458	108.482586	140.335139	201.728466	66.747754	94.757858	164.866148	272.83568	103.718175	209.847923	265.168209	379.632893	125.081296	174.974895	303.590518	496.82219	180	185.423538	192.989518	193.743769	184.837302	191.296696	196.555413	200.399416
355270953	85	62.085778	108.379437	162.828381	174.770517	147.768158	113.558118	106.643787	246.906779	107.842641	187.015656	276.770921	292.115858	242.183359	186.002384	177.246517	404.554594	180	190.161076	195.110181	193.267901	186.878782	195.644713	199.804826	203.669521	0	0	0	0	0	54.01501	111.06073	142.68453	204.731561	67.564712	95.791956	165.337919	273.374117	106.504993	214.674252	269.755113	385.826045	126.461267	176.492241	305.186926	498.423122	180	185.524043	193.080943	193.823778	184.746884	191.231399	196.579799	200.460967
355271453	85.5	60.691601	106.127682	160.112264	172.643328	146.928331	112.50493	105.839912	245.644577	105.509782	183.274171	272.507234	288.484885	239.727539	184.289119	175.959723	402.455895	180	190.073378	194.834183	193.05473	186.3719	195.259113	199.515885	203.54556	0	0	0	0	0	52.50617	108.451155	140.255626	201.936403	66.670826	94.799816	164.350059	272.365832	103.72299	209.760605	265.456627	380.151838	124.862426	174.890502	303.18035	495.981097	180	185.418255	193.120254	193.862276	184.966535	191.287554	196.696471	200.49905
355271953	86	60.940376	107.030606	161.084305	173.81818	146.80579	112.599216	106.042847	246.537837	105.980939	184.43534	273.875835	290.38511	239.945039	184.550412	176.510074	403.966917	180	190.362354	195.080967	193.511669	186.846686	195.812939	199.951476	203.964845	0	0	0	0	0	53.009674	109.561198	141.240317	203.293778	66.821183	94.814255	164.869183	273.60545	104.642368	211.713488	267.829842	382.94716	125.174778	175.134148	304.397992	498.198357	180	185.307609	193.042164	193.777081	184.84591	191.319497	196.618531	200.426367
355272453	86.5	61.634449	107.546013	161.924145	175.173033	147.566161	113.120415	106.473477	247.426614	107.140064	185.631893	275.430885	292.686305	241.20183	185.315851	176.990398	404.994824	180	190.352648	195.027602	193.30399	186.567101	195.645849	199.817479	203.858289	0	0	0	0	0	53.830128	110.896462	143.703879	206.538233	67.221621	95.620275	166.341783	275.38986	106.011129	214.537468	271.787096	388.54344	125.801966	176.111659	306.396413	501.671919	180	185.372663	193.069101	193.911764	184.904201	191.230217	196.705047	200.578366
355272953	87	59.953867	105.95911	159.236611	172.225177	145.899559	111.921541	105.522521	245.732625	104.537192	182.294688	271.032466	287.801069	238.495933	183.650229	175.35883	402.039206	180	190.33774	195.225528	193.351883	186.744674	195.935507	199.9233	203.898999	0	0	0	0	0	52.204677	107.961067	140.130997	200.825002	66.328248	94.030637	163.902695	271.353131	103.132058	208.613603	264.93795	378.240868	124.226143	173.725321	302.477112	494.727345	180	185.348323	192.859925	193.702785	184.888307	191.294719	196.7078	200.473916
355273453	87.5	61.107605	106.79803	160.608119	173.25374	146.531793	112.379569	106.120765	246.535119	106.017333	183.929267	273.172869	289.897727	239.490626	184.101196	176.090375	403.56133	180	190.547831	195.28881	193.614414	186.867629	195.929157	199.898285	203.892082	0	0	0	0	0	53.010477	109.579805	142.36034	203.736286	66.923201	94.78645	164.905992	273.115691	104.728725	211.974252	268.958042	383.986807	125.142819	174.912751	304.334659	497.490317	180	185.46071	193.016716	193.883096	184.878738	191.39011	196.662726	200.458416
355273953	88	60.862806	107.281128	161.124375	174.278151	146.439772	112.990256	106.198947	246.849055	106.158944	184.679932	274.22222	291.177437	239.824914	184.688483	176.33369	404.072301	180	190.332325	195.299587	193.51468	186.759054	195.808816	199.989092	203.980603	0	0	0	0	0	53.265032	110.244266	143.182544	205.010874	66.990806	94.926734	166.153792	274.408818	105.310487	213.130729	270.679133	386.113726	125.404257	175.40057	305.87018	499.995713	180	185.240768	192.996557	193.862614	184.733974	191.346398	196.714172	200.44979
355274453	88.5	59.757078	104.849371	157.979939	171.323199	145.267718	111.281788	104.71018	244.368992	104.137447	180.961018	269.075775	286.202217	237.248005	182.365244	174.094734	400.163127	180	190.62955	195.208855	193.692809	186.877884	195.807952	200.208053	203.974087	0	0	0	0	0	52.038898	107.141623	139.523028	198.865115	66.080665	93.737163	163.806933	269.281439	102.750227	207.376681	263.882516	375.209882	123.74011	173.08942	302.032462	491.471948	180	185.348959	193.104873	193.722463	184.664695	191.352925	196.703306	200.492754
355274953	89	61.232399	107.236604	161.142806	174.610623	146.441814	112.981282	105.585305	246.966782	106.471186	184.746311	274.322343	291.76734	239.709254	184.592659	175.703122	403.677412	180	190.255179	195.146466	193.222142	186.75277	195.698593	199.754431	203.768111	0	0	0	0	0	53.693538	110.778661	143.623945	205.135235	66.869833	95.052699	165.977317	274.085041	105.832536	213.95963	271.521355	386.186958	125.400268	175.541653	306.164938	499.461757	180	185.381568	193.154014	193.798069	184.905307	191.393577	196.573027	200.486729
355275453	89.5	59.303633	104.332465	157.724087	171.163251	144.720913	110.935447	105.045792	244.467581	103.298533	180.23447	268.538955	285.829543	236.681257	182.067821	174.142552	400.027069	180	190.257759	195.220217	193.287185	186.797255	195.724707	200.040632	203.928578	0	0	0	0	0	51.49442	106.705421	139.007129	198.409402	66.014442	93.782465	163.68876	269.695653	101.981887	206.522911	263.032847	373.645459	123.599087	172.996855	301.983665	491.963549	180	185.480438	192.928809	193.968481	184.827322	191.254706	196.740133	200.502829
355275953	90	60.930515	106.380133	159.909468	173.87428	146.237351	112.275256	105.317724	245.652142	105.950509	183.703297	272.698166	290.409621	239.052025	183.640017	175.103735	402.077542	180	190.302905	195.154371	193.291733	186.698367	195.640535	199.990489	203.880974	0	0	0	0	0	53.263626	110.072684	142.873296	203.30502	66.885198	94.83805	164.839225	272.412536	105.200557	212.848424	270.118347	383.290427	125.049318	175.108585	304.948463	496.593992	180	185.261115	192.85118	193.834186	184.707292	191.183223	196.615136	200.425227
355276453	90.5	59.951101	104.751728	157.520041	170.096675	145.140259	110.915002	104.02705	242.198773	104.145557	180.565915	268.05236	284.227929	237.115831	181.742552	172.815528	396.536891	180	190.233868	195.299946	193.546303	186.833461	195.71805	199.865955	204.007924	0	0	0	0	0	52.387017	107.635384	139.398509	197.986555	66.354673	93.760774	163.281559	266.84688	103.69186	208.441965	263.860059	373.426253	124.237189	173.134405	300.99523	486.524375	180	185.318569	193.096415	193.95718	184.815662	191.326556	196.762593	200.613468
355276953	91	59.328398	103.966075	155.751889	169.070825	144.662784	110.390088	103.165538	240.704567	103.351961	179.191121	265.278722	282.799945	236.261519	180.924524	171.947464	394.485974	180	190.084635	194.973734	193.275623	186.509901	195.438555	199.77408	203.706567	0	0	0	0	0	52.257892	106.627426	137.771648	195.090669	65.982389	93.409253	161.673798	263.291686	103.053355	206.679516	261.119304	367.60339	123.704059	172.230942	298.678373	480.77425	180	185.514542	193.159879	193.930724	184.920728	191.19226	196.875614	200.629815
355277453	91.5	61.289162	106.949174	161.066483	175.067314	145.922778	112.223355	105.764265	247.443529	106.344796	184.478338	273.998421	292.725133	238.764948	183.437408	175.577265	404.800337	180	190.353447	195.009315	193.223544	186.561388	195.658478	199.719265	203.832826	0	0	0	0	0	53.482569	110.431908	142.77383	202.785055	66.748213	94.741813	165.304753	269.758766	105.897708	213.661841	270.148808	382.162538	125.111414	174.949306	304.77263	491.813474	180	185.530302	193.274868	193.982288	184.773919	191.319637	196.787115	200.576139
355277953	92	59.461434	104.153976	157.623625	171.265025	144.733783	110.58325	104.484181	244.674233	103.41215	180.022539	268.065367	286.308609	236.095043	181.24014	173.570362	400.291888	180	190.350835	195.222833	193.177456	186.731954	195.86506	199.847189	203.873153	0	0	0	0	0	51.382893	106.024879	137.313646	194.869612	65.76696	93.161006	161.940013	263.803336	101.949692	205.443082	260.38487	367.205714	123.149629	171.926834	298.915429	481.374912	180	185.494141	193.188494	194.034273	184.898894	191.484515	196.738461	200.630419
355278453	92.5	60.717785	106.497651	160.547399	174.841208	145.980673	111.656283	105.406911	246.757454	105.669773	183.759175	273.360346	292.319364	238.697535	182.863784	175.337892	404.475102	180	190.30207	195.055592	193.356005	186.710936	195.732317	199.866357	203.804395	0	0	0	0	0	53.18092	109.324706	141.565339	199.831328	66.630552	94.0157	163.802548	266.48382	105.036171	211.40857	267.225601	376.378289	124.644221	173.800236	301.991902	485.945329	180	185.667208	193.289277	194.109027	184.880241	191.418572	196.775079	200.704085
355278953	93	60.622062	106.487294	161.35883	175.538483	146.028909	111.904817	105.748544	247.999709	105.627053	183.697365	274.007696	293.582267	238.577282	183.279463	175.849496	406.601095	180	190.604451	195.462218	193.465049	186.97258	195.910329	200.13857	203.954902	0	0	0	0	0	52.764044	108.684897	140.730969	200.10917	66.213478	94.004132	164.065443	267.55617	104.140567	210.262502	266.784619	377.202073	123.992412	173.439283	302.558405	487.884488	180	185.667506	193.392023	194.190245	185.062925	191.57105	196.920408	200.766785
355279453	93.5	61.316376	107.257042	161.680904	176.589057	146.227313	112.299865	105.869299	248.694691	106.548412	184.923895	275.280039	294.937552	238.977098	183.808588	176.032137	407.679182	180	190.384176	195.297693	193.434011	186.693348	195.8397	199.994749	203.898904	0	0	0	0	0	53.159613	109.129761	141.679052	200.251685	66.452153	93.90143	164.39244	267.655979	104.977854	211.417066	267.705801	377.010136	124.349708	173.594881	302.911806	487.597555	180	185.631634	193.338425	194.131471	185.028845	191.495347	196.988489	200.760875
355279953	94	61.835711	108.055043	163.464961	178.237143	147.034654	112.843819	106.297992	250.097822	107.371562	186.2895	277.641071	297.504949	240.150056	184.417551	176.641859	409.426225	180	190.009046	194.947899	193.132681	186.473256	195.457967	199.688956	203.566024	0	0	0	0	0	53.66487	110.576584	142.810278	202.293041	66.694817	94.530798	165.060958	268.395613	105.833649	213.616801	270.435097	380.89604	124.867003	174.425324	304.388904	489.314418	180	185.357522	193.085493	193.815495	184.622055	191.282435	196.653436	200.523293
355280453	94.5	60.414563	105.978645	161.089559	175.272618	145.332546	111.644774	105.761579	248.053125	105.120139	182.955604	273.531694	292.685143	237.658529	182.645036	175.51732	406.272629	180	190.425323	195.193353	193.405876	186.755059	195.598319	199.800832	203.729974	0	0	0	0	0	52.304276	107.472055	139.478874	196.791828	65.852257	93.226657	163.102446	264.966671	103.127005	207.948541	264.022793	371.074809	123.311247	172.098462	300.791763	483.042606	180	185.347036	193.09892	193.919927	184.692536	191.154675	196.622732	200.62185
355280953	95	61.154622	106.936469	162.804856	178.067638	146.384282	111.909027	106.269769	249.973689	106.28672	184.834589	276.778138	296.871739	239.007669	183.424969	176.554918	409.544034	180	190.179172	194.868074	193.112221	186.545013	195.666076	199.617257	203.624032	0	0	0	0	0	53.144053	109.088021	141.32136	199.391257	66.194066	93.776107	163.898934	265.819901	104.843171	210.976314	267.332584	375.901976	123.851742	172.949344	302.037995	484.403089	180	185.477246	193.278003	193.928194	184.729749	191.351142	196.784959	200.550966
355281453	95.5	61.23075	108.572149	167.16549	183.877054	146.749486	113.307726	109.098244	257.821461	106.484782	187.014504	283.807491	306.446185	239.412442	185.193575	180.851752	421.317738	180	190.101829	194.911871	193.005984	186.65353	195.559814	199.555419	203.420943	0	0	0	0	0	52.733152	108.180701	139.61954	197.067021	65.889595	93.066567	162.441488	262.9225	103.922331	209.464408	264.326871	371.075533	123.454247	172.206797	299.587653	479.209274	180	185.500153	192.979995	193.815655	184.815063	191.242071	196.644779	200.377517
355281953	96	59.579164	106.140774	164.978236	181.062241	144.317251	111.340639	108.163579	256.165451	103.835737	182.910622	279.912134	302.270609	235.598616	182.549919	179.470327	418.708334	180	190.260413	194.784587	192.992477	186.756141	195.776879	199.556876	203.404737	0	0	0	0	0	50.735216	104.882019	134.404127	188.343718	64.669774	91.402998	158.600647	254.094569	100.882795	202.704439	254.254051	354.958022	121.144619	168.867054	292.530854	464.162437	180	185.575863	193.278241	193.938699	184.966274	191.33128	196.731995	200.615993
355282453	96.5	59.663198	106.029378	163.601489	180.151719	143.900407	111.08608	107.430939	254.49667	103.897359	182.494966	278.053682	300.656849	235.345135	181.85613	178.31385	416.016915	180	190.415612	195.122257	193.140889	186.74593	195.935413	199.725219	203.595992	0	0	0	0	0	51.476872	105.856968	135.335226	189.961684	64.836763	92.147348	159.272598	255.433938	101.774518	204.701858	256.155731	357.824401	121.544946	169.654227	293.737778	465.82944	180	185.498895	193.316907	194.179331	184.908101	191.225952	196.770293	200.655508
355282953	97	59.24305	104.362151	160.919222	176.856755	143.468846	110.326404	106.297411	250.431255	102.822555	180.204556	273.513866	295.331496	234.23334	180.43633	176.170695	410.241601	180	190.503316	195.097144	193.095438	186.723379	195.730857	199.709485	203.705241	0	0	0	0	0	51.47843	105.480862	135.145305	189.74749	64.966015	91.758028	159.773246	256.496961	101.487752	204.245457	256.1248	358.43279	121.54444	169.712521	294.75961	468.40462	180	185.514729	193.3952	194.095112	184.896482	191.269769	196.749814	200.661249
355283453	97.5	59.001214	103.923309	160.200314	176.19694	143.457136	110.184753	106.003032	250.93749	102.740974	179.579522	272.685763	294.297619	233.854867	180.356869	176.003754	410.575794	180	190.300842	195.019845	193.121054	186.593934	195.866351	199.863646	203.575756	0	0	0	0	0	50.831747	104.315779	133.84945	188.26745	64.458803	91.116209	158.982986	255.866539	100.38973	201.988625	253.747902	354.873749	120.884225	168.581611	293.324591	466.315959	180	185.487632	193.203497	193.955023	184.813674	191.377757	196.692293	200.654013
355283953	98	61.375688	108.09378	167.048831	184.511025	145.980877	112.778893	109.537734	259.633862	106.438645	186.269218	283.752618	307.802455	238.280686	184.565352	181.39686	424.583181	180	190.262157	195.019107	193.183308	186.732012	195.823514	199.71332	203.736349	0	0	0	0	0	52.141952	108.041532	139.041856	197.37861	65.408594	92.818551	163.305353	264.263701	103.211138	208.863107	263.310935	371.634916	122.519713	171.538172	300.928875	482.207871	180	185.775713	193.241719	194.046337	184.997266	191.448084	196.831647	200.653347
355284453	98.5	60.384453	107.468336	166.735652	184.052224	145.498143	112.956755	109.628329	260.700444	105.142461	185.466829	283.038267	307.164376	237.413124	184.720524	181.744334	426.355158	180	190.359649	194.918446	193.082004	186.739302	195.683951	199.863232	203.515466	0	0	0	0	0	51.129377	106.219052	137.661169	194.613062	65.024316	92.223579	163.332759	264.476766	101.191437	205.373027	260.659037	366.884875	121.630954	170.851746	300.773273	482.299182	180	185.489073	193.316606	193.947293	184.977462	191.394724	196.760696	200.657122
355284953	99	61.62983	108.945771	168.199654	184.643144	146.353754	113.32413	109.717169	260.086479	107.091242	187.992133	285.595047	308.257342	239.372486	185.450513	181.974235	425.637619	180	190.247211	194.803834	192.919709	186.53462	195.565448	199.690623	203.433699	0	0	0	0	0	52.295882	108.079714	139.452239	196.323911	65.609773	93.105745	163.810787	265.107919	103.459773	209.207379	263.802715	370.346395	122.701244	172.179178	302.098086	483.121499	180	185.367106	193.213922	193.74002	184.758201	191.231824	196.671975	200.447694
355285453	99.5	62.881008	110.931668	170.98223	186.608381	147.785205	114.310098	110.457826	261.909155	109.141168	191.263445	289.723973	311.568729	241.549886	187.112134	183.275973	428.127288	180	190.29141	194.811375	192.859015	186.511393	195.631014	199.600281	203.326243	0	0	0	0	0	53.428508	110.333474	142.662697	201.368433	66.173888	94.345083	165.758396	269.331782	105.515248	213.243618	269.796297	379.753375	124.056869	174.209746	306.056605	490.761052	180	185.593337	193.258831	193.986763	185.019035	191.343793	196.792391	200.592034
355285953	100	62.162609	109.772603	168.820952	185.18047	147.191323	113.354447	110.179821	261.143741	107.968541	189.176658	286.844985	309.14208	240.398638	186.067608	182.860912	426.776883	180	190.423068	195.054774	193.252912	186.809584	195.837547	199.874415	203.652751	0	0	0	0	0	52.45905	108.371918	140.194136	199.333314	65.903381	93.67654	165.599805	267.621999	103.753112	209.783978	265.453854	375.26622	123.398907	172.934462	304.741295	487.710682	180	185.573425	193.219511	193.88554	184.860384	191.508171	196.888794	200.589017
355286453	100.5	62.916448	110.80924	170.283426	186.593472	147.911529	114.296601	110.606876	262.213427	109.209566	191.005106	289.393281	311.659247	241.589831	186.927635	183.447579	428.82423	180	190.188904	194.918525	193.124214	186.62008	195.626253	199.891996	203.519552	0	0	0	0	0	53.28191	109.867057	142.03169	201.105696	65.997175	94.425602	166.25901	268.718918	105.198516	212.504628	268.999533	379.30894	123.944398	174.102549	306.810698	490.120177	180	185.260157	193.014498	193.701341	184.845309	191.070653	196.449303	200.291221
355286953	101	63.849819	112.715916	172.960757	191.474151	149.288969	115.619835	112.210416	267.23788	110.559994	194.006204	294.100385	318.774398	243.855956	189.351391	186.128823	436.402788	180	190.219138	194.868855	192.775409	186.521079	195.415251	199.543498	203.29255	0	0	0	0	0	53.651029	111.152123	144.528561	204.864299	66.672284	95.028329	168.271654	271.679545	106.118885	215.232113	272.844728	385.547375	124.55579	175.309418	310.31753	495.667345	180	185.673199	193.312318	193.944807	185.033843	191.545882	196.717173	200.631062
355287453	101.5	62.543331	111.047213	170.54803	186.954502	148.192366	115.261349	111.902759	263.617719	108.784253	191.216599	289.399125	312.013091	242.019266	188.384775	185.152826	431.192801	180	190.254331	195.073491	193.084205	186.79451	195.696271	199.729949	203.632505	0	0	0	0	0	51.990707	108.882187	142.640771	203.02557	65.765368	94.235644	170.014658	275.909328	102.848506	210.308929	269.51168	382.875488	123.170598	174.213876	313.257261	502.652041	180	185.474504	193.125299	193.737825	185.013743	191.299063	196.707906	200.447579
355287953	102	63.030977	110.6985	168.102212	182.251414	148.208633	114.686009	109.911821	257.361996	109.482175	190.921268	285.352111	304.131266	242.008287	187.694068	182.585	421.000022	180	190.471167	195.034671	193.2432	186.807107	195.646701	199.847477	203.639289	0	0	0	0	0	52.811982	110.269754	144.480246	207.003416	66.180688	94.924963	170.870258	278.119189	104.424094	213.539174	273.787471	389.514386	124.086724	175.41245	315.378034	506.759345	180	185.46065	193.038695	193.667677	184.827923	191.367199	196.597944	200.411517
355288453	102.5	62.330753	109.217668	164.198085	175.476082	147.32906	113.390612	107.429033	249.208421	108.316334	188.204966	279.315496	293.407002	240.350554	185.605994	178.491921	408.024793	180	190.191327	194.890603	193.200854	186.621726	195.64925	199.648475	203.571426	0	0	0	0	0	53.486167	111.368336	145.43367	207.347286	66.877128	95.664158	170.544574	277.3107	105.452857	215.117338	274.784677	390.079692	125.332775	176.569868	314.861849	505.49537	180	185.397997	193.132189	193.87968	184.881567	191.23084	196.615536	200.457481
355288953	103	55.749516	95.104201	139.808244	146.919994	137.711036	102.42975	94.176543	213.376483	97.317256	164.99092	238.744351	246.645182	225.282574	168.337409	156.965081	350.324391	180	190.530822	195.509257	193.991921	186.905419	196.068418	200.250149	204.388298	0	0	0	0	0	48.866944	98.817632	124.275692	173.990975	64.020638	88.875792	151.295249	238.921208	97.034897	191.353169	235.841812	328.478018	120.040614	164.568514	279.108737	436.015086	180	185.561948	193.538665	194.373884	185.087181	191.505464	197.056992	201.070851
355289453	103.5	53.234456	90.57854	132.458376	139.606322	133.845534	98.974692	90.468901	205.864179	93.245742	156.856565	226.346419	234.561029	218.760569	162.891843	151.473841	338.444839	180	190.501841	195.684255	193.986131	186.90105	196.029705	200.540595	204.44549	0	0	0	0	0	47.742278	96.074873	119.869928	167.608862	62.731189	87.775352	148.148145	232.741985	94.607232	186.288216	227.753223	317.099517	117.771557	162.001873	274.15189	425.10884	180	185.521966	193.368036	194.361841	184.893218	191.384537	196.971969	201.054222
355289953	104	53.792214	92.801958	137.988357	147.331011	134.181552	101.352335	93.87749	215.935935	94.3948	161.082471	235.546175	247.105231	219.923003	166.356571	156.611634	354.234861	180	190.397508	195.242092	193.446376	186.651772	195.770112	200.044632	204.13043	0	0	0	0	0	47.690195	97.616721	123.85013	175.435962	62.65764	88.448147	152.318687	241.573966	94.823346	189.621739	235.297064	331.16568	117.470828	163.515873	281.399428	441.494269	180	185.559098	193.532253	194.415972	184.915874	191.576942	197.21077	201.052518
355290453	104.5	53.690571	93.960407	140.987871	151.378691	135.072277	102.809379	96.276776	223.544897	94.280772	162.957276	240.600361	254.030204	221.187219	168.566318	160.507905	366.154759	180	190.567169	195.328228	193.5357	186.773444	196.033086	200.135906	204.069574	0	0	0	0	0	47.426423	98.249473	126.045314	178.937426	62.586684	88.945341	155.28224	248.647697	94.350639	190.765066	238.901811	338.21909	117.364147	164.623329	286.746392	453.811618	180	185.563263	193.519521	194.227784	185.216258	191.523585	197.014797	201.058458
355290953	105	54.372701	95.670916	145.313008	158.545588	136.224138	104.9804	99.401884	233.848703	95.255132	165.847216	247.906419	265.299712	222.881963	171.953176	165.486115	383.525397	180	190.514105	195.110472	193.26117	186.761694	195.955562	200.106434	203.852357	0	0	0	0	0	47.341921	98.797368	127.819388	183.770119	62.483577	89.762395	158.582827	256.171969	94.265758	191.712332	242.33977	347.201651	117.322051	165.69929	292.368861	467.81227	180	185.388623	193.107235	194.030082	184.68199	191.47783	196.643824	200.551911
355291453	105.5	53.940697	95.28641	144.981422	158.466996	136.505236	104.77636	99.600593	235.491371	94.62923	164.714568	246.911906	265.271995	223.290696	172.18756	165.494378	385.851486	180	190.212892	195.097552	193.306034	186.839371	195.823759	199.812625	203.852322	0	0	0	0	0	46.661437	96.756263	124.228513	179.505068	62.174496	88.738748	155.878842	252.557209	92.984497	187.952114	236.185834	338.930118	116.802088	163.935331	287.929441	460.562082	180	185.702865	193.400756	194.31609	185.143545	191.723961	197.061536	200.919838
355291953	106	54.286891	95.813427	146.212194	159.814169	137.416342	105.855282	100.160179	236.466636	95.140951	165.820969	248.944888	267.659408	224.593702	173.496179	166.499646	387.838539	180	190.491228	195.222198	193.215449	186.874812	195.953276	200.106578	203.976122	0	0	0	0	0	46.747369	97.797268	124.931592	180.815219	62.593998	89.120522	156.94263	251.448177	93.036552	189.267491	237.150234	340.786789	117.374921	164.888886	289.437122	459.417824	180	185.418192	193.310178	194.078925	184.913342	191.410159	196.864183	200.946843
355292453	106.5	51.835668	87.070952	126.924075	132.900976	133.809454	99.62188	89.447823	202.062657	91.086584	151.416421	217.381369	223.992027	218.655904	163.633378	149.328353	331.629518	180	190.261773	195.344932	193.894697	186.672306	195.677632	200.27263	204.467984	0	0	0	0	0	46.808868	95.933248	120.685163	172.581398	62.719182	88.46871	153.45675	242.373739	93.186394	186.212412	229.320604	325.812021	117.893133	163.909203	282.961955	442.296897	180	185.545641	193.664869	194.469272	184.890994	191.461572	197.04023	201.090617
355292953	107	50.764517	81.746842	113.935971	115.197595	130.308252	93.347934	79.842575	171.239912	89.295166	142.359338	195.728174	194.719188	213.681518	153.999292	134.305372	282.24676	180	190.815087	196.275111	195.02626	186.951852	196.310341	200.957329	205.601479	0	0	0	0	0	48.160048	96.939304	119.128724	168.645245	64.026733	88.410166	149.076689	230.635284	95.720486	188.342289	226.418482	319.035133	120.135904	163.938712	275.323955	421.419013	180	185.599546	193.71756	194.641282	184.973414	191.565881	197.208255	201.35847
355293453	107.5	46.995965	72.630899	95.89238	91.570519	124.48563	85.921695	68.864521	140.166881	83.105842	127.127217	165.925115	156.779027	203.933119	142.056611	116.987524	232.397966	180	190.510921	196.395331	195.625779	186.819928	196.170762	201.232557	206.275036	0	0	0	0	0	47.021074	92.170134	109.333824	150.924751	63.247254	85.308141	137.443836	205.624545	93.547089	179.157739	208.551679	285.846357	118.772008	158.186137	254.485504	376.744351	180	185.482454	193.832578	194.935719	184.820546	191.567823	197.217837	201.634559
355293953	108	52.887123	89.591604	131.771887	140.551547	133.745118	100.105631	91.34858	209.415013	92.938202	156.024659	225.365328	236.569205	219.262572	165.074533	152.803586	344.25801	180	190.956313	195.801038	194.380252	187.135187	196.100686	200.745816	204.846604	0	0	0	0	0	49.545494	101.769187	128.654112	184.711116	64.816347	91.515889	158.851926	251.537358	98.182724	197.701107	244.465129	348.538747	121.614177	169.300592	293.44466	459.098779	180	185.482179	193.507395	194.279044	184.808892	191.233086	196.872981	200.923851
355294453	108.5	61.536417	110.033543	169.199042	186.228121	146.083306	114.541408	110.559788	264.118696	107.325028	189.733632	287.587003	311.376392	239.062175	187.366255	183.446142	431.781307	180	190.238526	194.902782	193.094682	186.446975	195.438692	199.657412	203.369938	0	0	0	0	0	56.234699	118.080525	154.152211	226.049613	69.26899	99.959114	180.516666	294.218504	110.596441	228.477499	291.477222	425.626824	129.815026	184.573459	332.585522	535.987959	180	185.60205	193.087407	193.894674	184.769448	191.248213	196.519013	200.416503
355294953	109	64.750763	115.050153	177.536953	195.487317	149.959318	117.59751	114.140702	272.958006	112.062891	198.189372	301.165215	326.241585	244.74313	192.407429	189.36869	446.291914	180	190.310062	194.995572	193.222499	186.517456	195.486048	199.538901	203.488651	0	0	0	0	0	58.945264	123.576584	160.20767	233.399401	71.419206	102.556285	183.888301	296.734741	115.951318	238.790369	302.600903	439.529534	133.52105	188.998563	338.332124	541.112999	180	185.576111	193.127811	194.004156	184.843212	191.287181	196.577409	200.413997
355295453	109.5	60.801947	104.792118	156.346799	165.862089	144.175485	109.204255	100.655581	230.596119	106.042354	180.887821	265.802329	277.93407	235.560386	179.069477	167.54771	378.032604	180	190.437517	195.377301	193.850753	186.641797	195.600965	199.987746	204.276596	0	0	0	0	0	56.766038	115.233679	144.019878	204.255978	70.203496	97.951392	167.270329	261.398711	111.515188	222.413456	272.735957	385.409074	131.231596	180.5438	308.454034	476.491171	180	185.806745	193.463216	194.450052	184.728428	191.293134	196.895617	200.956107
355295953	110	43.128118	57.229478	63.470947	49.741279	115.054409	69.310962	45.986782	73.74829	76.539848	101.993799	112.063406	87.946067	188.783826	115.839311	79.978628	125.317185	180	191.311435	198.141174	198.408388	187.129077	196.595236	202.457841	209.268504	0	0	0	0	0	48.336604	83.076671	86.636734	106.471143	63.109612	75.94026	102.067243	134.848671	95.96802	162.522497	166.546072	204.087004	118.457231	141.650061	190.671812	249.216263	180	185.743327	194.7178	196.636422	184.653199	191.564067	198.027462	203.073756
355296453	110.5	43.44818	58.868606	65.506261	53.689431	115.513614	70.666682	47.684452	80.386086	77.251967	104.433817	115.643811	94.078889	189.676953	118.006758	82.933146	135.73986	180	190.784534	197.669992	198.153121	187.035137	196.527618	202.270851	208.527283	0	0	0	0	0	49.13102	85.354024	89.287631	110.323765	63.433814	76.839067	104.627903	140.10478	97.721839	166.326556	170.948017	211.086408	119.142486	143.396786	194.903308	258.48927	180	185.632425	194.879871	196.844897	184.794737	191.54312	198.147692	203.124935
355296953	111	62.865014	111.019863	168.331657	183.653339	147.290425	113.913124	108.597626	255.445612	109.437832	191.298884	286.190613	306.778685	240.372674	186.575196	180.234095	417.975888	180	190.515271	195.40314	193.626521	186.65272	195.845747	199.958291	203.710261	0	0	0	0	0	58.49124	120.860381	156.867569	222.58864	70.159283	100.286753	177.937082	284.039921	114.766415	233.961586	296.780145	419.231265	131.307779	185.254612	327.648498	518.49663	180	185.676214	193.295061	194.344043	184.781113	191.257413	196.630862	200.516094
355297453	111.5	65.551345	118.020611	183.524415	203.656683	150.665766	119.113635	117.070988	280.101899	113.459909	203.13745	311.282015	338.94667	245.965029	194.840632	193.696631	457.762775	180	190.22644	194.939205	192.869255	186.53411	195.456834	199.403938	203.175026	0	0	0	0	0	58.49061	122.287229	160.317891	229.593317	70.381804	101.512268	182.606479	292.906047	114.875362	236.394443	303.003306	432.318068	131.570586	187.025045	336.118215	533.630746	180	185.342802	192.945447	193.860951	184.537253	190.960133	196.276639	200.244352
355297953	112	65.286249	117.83044	184.197757	204.423399	150.070693	119.0465	117.188919	282.068261	113.290521	202.553106	312.556094	341.026826	245.293992	194.764368	194.281251	461.075362	180	190.099957	194.499237	192.639513	186.264147	195.3188	199.226729	202.892481	0	0	0	0	0	58.151141	121.92251	157.777376	225.763587	70.096345	100.599076	180.311001	288.358825	114.617684	235.460725	298.489548	424.868263	131.136014	185.891678	332.238695	525.617076	180	185.647418	193.264415	194.097549	185.000712	191.510888	196.707758	200.545184
355298453	112.5	63.946873	115.202745	180.83707	200.203993	148.310298	117.287802	115.595716	276.857258	111.191436	198.40029	306.629962	334.088084	242.404749	191.991211	191.830848	453.766088	180	190.164393	194.692175	192.778044	186.610956	195.448843	199.276978	202.989509	0	0	0	0	0	57.509844	120.893737	156.306476	223.772234	69.654971	100.089643	179.953336	287.433882	113.475654	233.190711	295.081596	421.078407	129.978307	184.828	331.218093	523.643157	180	185.709389	193.281426	194.065468	184.962876	191.333174	196.630849	200.42235
355298953	113	62.616674	111.712339	173.938123	192.515775	146.517621	115.724196	112.719496	269.504135	108.742926	192.884998	295.806014	321.032195	239.086142	189.151214	187.081291	440.37723	180	190.310248	194.763238	192.673105	186.576203	195.375613	199.437109	203.099286	0	0	0	0	0	56.106281	117.289562	151.32203	214.686117	68.615449	98.404453	176.423883	278.445913	110.551778	226.833097	286.000594	404.851721	128.359818	181.785494	324.815767	507.9479	180	185.243994	192.949499	193.783426	184.500301	191.15652	196.35717	200.257915
